SpectraSuite Datei
++++++++++++++++++++++++++++++++++++
Datum: Thu Mar 09 10:20:23 CET 2017
Benutzer: Admin
Dark-Spektrum vorhanden: Nein
Referenz-Spektrum vorhanden: Nein
Zahl der probierten Teilspektren: 1
Spektrometer: USB4F05832
Integrationszeit (usec): 100000 (USB4F05832)
Spektren Durchschnitt berechnet: 10 (USB4F05832)
Boxcar Glättung: 0 (USB4F05832)
Dunkelstromkorrektur: Nein (USB4F05832)
Puls/Lampe aktiviert: Nein (USB4F05832)
Correct for Detector Non-linearity: Nein (USB4F05832)
Streulichtkorrektur: Nein (USB4F05832)
Anzahl Pixel in verarbeitetem Spektrum: 3648
>>>>>Begin Processed Spectral Data<<<<<
177,54	1314,18
177,75	1314,18
177,97	1314,18
178,19	1328,93
178,41	1327,49
178,63	1526,35
178,85	1412,07
179,07	1458,56
179,29	1478,84
179,51	1384,22
179,73	1520,00
179,95	1467,37
180,17	1460,61
180,39	1540,28
180,61	1482,11
180,83	1526,56
181,05	1433,37
181,27	1480,48
181,49	1463,07
181,71	1448,12
181,92	1584,51
182,14	1487,64
182,36	1447,30
182,58	1526,97
182,80	1453,85
183,02	1574,48
183,24	1526,35
183,46	1494,20
183,68	1481,30
183,90	1511,61
184,12	1448,32
184,34	1521,64
184,56	1484,16
184,78	1424,36
185,00	1472,08
185,21	1547,04
185,43	1466,14
185,65	1488,26
185,87	1482,11
186,09	1549,90
186,31	1475,77
186,53	1494,61
186,75	1502,80
186,97	1528,60
187,19	1541,30
187,41	1432,96
187,63	1549,49
187,84	1448,73
188,06	1532,50
188,28	1467,98
188,50	1528,81
188,72	1564,03
188,94	1516,52
189,16	1456,52
189,38	1460,82
189,60	1506,28
189,82	1473,51
190,03	1516,73
190,25	1478,22
190,47	1516,32
190,69	1495,02
190,91	1432,55
191,13	1503,62
191,35	1551,34
191,57	1492,56
191,79	1481,09
192,01	1501,78
192,22	1537,61
192,44	1491,74
192,66	1516,32
192,88	1494,81
193,10	1495,22
193,32	1477,00
193,54	1568,54
193,76	1544,17
193,98	1471,06
194,19	1508,12
194,41	1476,79
194,63	1452,62
194,85	1479,45
195,07	1530,45
195,29	1447,09
195,51	1520,00
195,73	1463,27
195,94	1489,49
196,16	1482,93
196,38	1569,36
196,60	1468,80
196,82	1446,89
197,04	1486,62
197,26	1456,11
197,48	1445,05
197,69	1504,44
197,91	1456,92
198,13	1461,84
198,35	1486,62
198,57	1474,54
198,79	1532,29
199,01	1518,98
199,22	1516,11
199,44	1544,37
199,66	1491,95
199,88	1477,40
200,10	1529,42
200,32	1496,86
200,54	1537,82
200,75	1558,91
200,97	1477,00
201,19	1529,83
201,41	1525,94
201,63	1480,68
201,85	1444,02
202,06	1504,03
202,28	1460,41
202,50	1512,42
202,72	1404,09
202,94	1445,46
203,16	1475,77
203,38	1483,96
203,59	1467,16
203,81	1526,76
204,03	1442,38
204,25	1486,01
204,47	1537,00
204,69	1488,05
204,90	1454,88
205,12	1523,48
205,34	1494,81
205,56	1493,99
205,78	1444,02
206,00	1571,61
206,21	1545,81
206,43	1465,53
206,65	1512,02
206,87	1436,65
207,09	1519,80
207,30	1463,89
207,52	1517,95
207,74	1498,09
207,96	1478,84
208,18	1501,78
208,40	1472,28
208,61	1474,95
208,83	1499,93
209,05	1432,76
209,27	1398,76
209,49	1516,73
209,70	1509,56
209,92	1512,02
210,14	1452,83
210,36	1475,97
210,58	1481,71
210,79	1518,57
211,01	1439,72
211,23	1517,34
211,45	1532,29
211,67	1490,92
211,88	1436,85
212,10	1541,30
212,32	1444,43
212,54	1469,42
212,76	1457,33
212,97	1453,44
213,19	1450,78
213,41	1542,73
213,63	1443,82
213,85	1469,62
214,06	1454,47
214,28	1552,57
214,50	1459,38
214,72	1528,60
214,94	1495,02
215,15	1488,87
215,37	1464,50
215,59	1474,54
215,81	1540,07
216,02	1496,86
216,24	1536,18
216,46	1431,73
216,68	1498,91
216,90	1497,68
217,11	1561,37
217,33	1453,03
217,55	1556,25
217,77	1476,59
217,98	1556,05
218,20	1512,22
218,42	1555,43
218,64	1497,07
218,85	1543,76
219,07	1475,56
219,29	1483,14
219,51	1518,57
219,73	1469,01
219,94	1485,19
220,16	1553,38
220,38	1504,23
220,60	1454,06
220,81	1423,75
221,03	1435,42
221,25	1534,75
221,47	1437,47
221,68	1489,90
221,90	1541,30
222,12	1478,84
222,34	1510,17
222,55	1526,97
222,77	1536,39
222,99	1495,02
223,21	1508,74
223,42	1543,96
223,64	1506,69
223,86	1444,43
224,08	1504,44
224,29	1544,37
224,51	1480,68
224,73	1500,34
224,94	1519,18
225,16	1449,96
225,38	1486,83
225,60	1518,16
225,81	1466,55
226,03	1477,40
226,25	1449,35
226,47	1502,80
226,68	1508,12
226,90	1516,93
227,12	1502,39
227,33	1494,81
227,55	1454,67
227,77	1456,52
227,99	1558,91
228,20	1485,19
228,42	1508,74
228,64	1500,34
228,86	1483,96
229,07	1480,89
229,29	1457,54
229,51	1398,97
229,72	1548,47
229,94	1497,07
230,16	1520,62
230,38	1474,54
230,59	1485,60
230,81	1561,37
231,03	1496,25
231,24	1486,21
231,46	1445,25
231,68	1474,33
231,89	1488,05
232,11	1453,65
232,33	1525,94
232,55	1482,93
232,76	1501,98
232,98	1509,35
233,20	1460,82
233,41	1440,95
233,63	1496,66
233,85	1491,13
234,06	1506,69
234,28	1535,16
234,50	1459,38
234,71	1493,99
234,93	1538,84
235,15	1500,55
235,37	1410,03
235,58	1489,28
235,80	1424,57
236,02	1462,45
236,23	1516,73
236,45	1483,34
236,67	1524,51
236,88	1477,81
237,10	1527,17
237,32	1526,76
237,53	1484,78
237,75	1504,85
237,97	1440,75
238,18	1483,14
238,40	1509,56
238,62	1467,16
238,83	1499,73
239,05	1476,59
239,27	1475,15
239,48	1453,44
239,70	1483,14
239,92	1540,48
240,13	1537,00
240,35	1487,85
240,57	1505,67
240,78	1472,49
241,00	1443,82
241,22	1499,93
241,43	1555,84
241,65	1484,57
241,87	1539,66
242,08	1605,20
242,30	1479,45
242,52	1495,02
242,73	1526,56
242,95	1448,73
243,16	1489,28
243,38	1565,47
243,60	1493,38
243,81	1507,10
244,03	1524,51
244,25	1444,02
244,46	1469,21
244,68	1463,89
244,90	1472,69
245,11	1439,72
245,33	1470,24
245,55	1504,44
245,76	1473,10
245,98	1475,97
246,19	1539,05
246,41	1564,24
246,63	1529,22
246,84	1557,89
247,06	1508,12
247,28	1505,05
247,49	1460,41
247,71	1446,89
247,92	1521,64
248,14	1556,05
248,36	1524,71
248,57	1539,46
248,79	1521,85
249,01	1493,99
249,22	1500,75
249,44	1514,88
249,65	1476,38
249,87	1502,39
250,09	1517,34
250,30	1510,79
250,52	1476,18
250,73	1536,80
250,95	1476,79
251,17	1498,70
251,38	1482,93
251,60	1463,27
251,81	1541,10
252,03	1575,91
252,25	1456,92
252,46	1473,72
252,68	1550,93
252,89	1493,79
253,11	1503,00
253,33	1501,98
253,54	1424,77
253,76	1505,87
253,97	1512,83
254,19	1537,21
254,41	1455,08
254,62	1532,70
254,84	1517,75
255,05	1501,98
255,27	1508,74
255,49	1553,18
255,70	1546,01
255,92	1464,09
256,13	1444,23
256,35	1503,21
256,56	1526,35
256,78	1534,13
257,00	1533,93
257,21	1481,91
257,43	1461,02
257,64	1494,20
257,86	1546,01
258,08	1484,16
258,29	1567,52
258,51	1463,68
258,72	1511,40
258,94	1559,94
259,15	1510,17
259,37	1498,70
259,59	1407,77
259,80	1498,29
260,02	1487,03
260,23	1499,32
260,45	1435,22
260,66	1503,82
260,88	1509,76
261,09	1465,73
261,31	1486,42
261,53	1524,30
261,74	1553,18
261,96	1412,69
262,17	1461,43
262,39	1501,37
262,60	1496,86
262,82	1473,72
263,03	1462,04
263,25	1525,12
263,46	1486,21
263,68	1503,82
263,90	1479,25
264,11	1463,07
264,33	1553,59
264,54	1526,76
264,76	1509,56
264,97	1536,80
265,19	1470,03
265,40	1546,63
265,62	1495,63
265,83	1521,64
266,05	1493,99
266,26	1465,94
266,48	1579,39
266,70	1543,35
266,91	1424,57
267,13	1518,98
267,34	1476,59
267,56	1514,27
267,77	1497,68
267,99	1463,68
268,20	1538,43
268,42	1500,75
268,63	1454,88
268,85	1603,56
269,06	1544,58
269,28	1529,83
269,49	1512,63
269,71	1526,15
269,92	1484,16
270,14	1449,55
270,35	1483,96
270,57	1524,30
270,78	1483,55
271,00	1485,39
271,21	1602,74
271,43	1480,07
271,64	1475,36
271,86	1534,13
272,07	1455,49
272,29	1581,65
272,50	1456,72
272,72	1540,48
272,93	1509,15
273,15	1552,16
273,36	1526,35
273,58	1466,14
273,79	1490,72
274,01	1489,90
274,22	1456,72
274,44	1499,73
274,65	1517,54
274,87	1505,05
275,08	1521,23
275,30	1537,41
275,51	1595,57
275,73	1552,36
275,94	1478,22
276,16	1486,21
276,37	1480,89
276,59	1506,69
276,80	1503,41
277,02	1516,32
277,23	1477,81
277,45	1523,48
277,66	1419,24
277,88	1539,87
278,09	1581,44
278,30	1545,19
278,52	1422,11
278,73	1598,44
278,95	1513,24
279,16	1552,97
279,38	1525,33
279,59	1513,86
279,81	1459,18
280,02	1502,39
280,24	1478,43
280,45	1493,79
280,67	1556,87
280,88	1551,34
281,09	1459,38
281,31	1468,39
281,52	1475,97
281,74	1584,31
281,95	1486,01
282,17	1483,14
282,38	1549,08
282,60	1505,46
282,81	1522,87
283,02	1485,80
283,24	1470,24
283,45	1546,01
283,67	1455,08
283,88	1539,25
284,10	1477,40
284,31	1508,74
284,53	1489,08
284,74	1492,56
284,95	1500,34
285,17	1492,35
285,38	1480,27
285,60	1480,07
285,81	1465,32
286,03	1508,53
286,24	1522,26
286,45	1569,15
286,67	1490,72
286,88	1492,97
287,10	1539,05
287,31	1452,21
287,53	1520,62
287,74	1524,51
287,95	1450,99
288,17	1527,17
288,38	1515,09
288,60	1464,71
288,81	1484,57
289,02	1468,39
289,24	1604,79
289,45	1491,95
289,67	1513,65
289,88	1494,61
290,10	1519,18
290,31	1527,58
290,52	1483,34
290,74	1500,75
290,95	1524,30
291,17	1529,01
291,38	1435,42
291,59	1502,19
291,81	1469,42
292,02	1503,62
292,24	1507,30
292,45	1500,75
292,66	1498,91
292,88	1544,78
293,09	1498,50
293,31	1498,50
293,52	1491,13
293,73	1439,11
293,95	1514,47
294,16	1537,00
294,37	1513,24
294,59	1521,23
294,80	1576,12
295,02	1497,27
295,23	1440,34
295,44	1559,94
295,66	1511,40
295,87	1506,28
296,09	1471,47
296,30	1515,50
296,51	1465,94
296,73	1482,93
296,94	1467,16
297,15	1478,84
297,37	1465,73
297,58	1465,53
297,79	1521,85
298,01	1524,10
298,22	1551,13
298,44	1444,64
298,65	1511,81
298,86	1547,45
299,08	1471,06
299,29	1491,13
299,50	1484,37
299,72	1454,47
299,93	1526,76
300,14	1525,74
300,36	1468,19
300,57	1447,91
300,79	1477,81
301,00	1541,71
301,21	1427,02
301,43	1486,01
301,64	1462,25
301,85	1482,32
302,07	1539,46
302,28	1467,98
302,49	1564,44
302,71	1515,50
302,92	1535,98
303,13	1563,83
303,35	1489,90
303,56	1510,58
303,77	1443,82
303,99	1507,10
304,20	1501,78
304,41	1468,80
304,63	1464,50
304,84	1535,57
305,05	1521,44
305,27	1531,27
305,48	1515,91
305,69	1482,11
305,91	1525,53
306,12	1499,52
306,33	1500,75
306,55	1479,66
306,76	1468,60
306,97	1486,01
307,19	1522,26
307,40	1531,06
307,61	1529,22
307,82	1472,08
308,04	1549,08
308,25	1537,00
308,46	1505,05
308,68	1500,34
308,89	1552,36
309,10	1496,25
309,32	1476,79
309,53	1465,94
309,74	1520,41
309,96	1490,31
310,17	1482,32
310,38	1483,14
310,59	1504,44
310,81	1492,56
311,02	1514,88
311,23	1513,65
311,45	1495,63
311,66	1523,48
311,87	1488,87
312,09	1547,45
312,30	1508,94
312,51	1513,45
312,72	1488,87
312,94	1543,35
313,15	1484,16
313,36	1522,26
313,58	1463,89
313,79	1561,78
314,00	1490,10
314,21	1440,75
314,43	1507,10
314,64	1520,41
314,85	1460,41
315,06	1469,62
315,28	1529,83
315,49	1531,88
315,70	1500,75
315,92	1537,41
316,13	1590,04
316,34	1549,08
316,55	1527,17
316,77	1475,97
316,98	1573,86
317,19	1492,76
317,40	1424,98
317,62	1449,55
317,83	1551,54
318,04	1512,83
318,25	1470,24
318,47	1495,43
318,68	1505,87
318,89	1534,13
319,11	1488,87
319,32	1512,02
319,53	1571,61
319,74	1534,13
319,96	1524,92
320,17	1503,00
320,38	1422,93
320,59	1551,54
320,81	1545,19
321,02	1499,73
321,23	1472,28
321,44	1538,23
321,65	1490,92
321,87	1510,79
322,08	1567,52
322,29	1492,35
322,50	1478,22
322,72	1481,09
322,93	1491,74
323,14	1477,40
323,35	1473,92
323,57	1559,94
323,78	1493,58
323,99	1514,06
324,20	1528,60
324,41	1465,53
324,63	1536,80
324,84	1509,56
325,05	1496,86
325,26	1518,36
325,48	1520,21
325,69	1518,98
325,90	1491,95
326,11	1499,93
326,32	1533,93
326,54	1533,52
326,75	1505,87
326,96	1499,52
327,17	1505,26
327,39	1543,35
327,60	1520,62
327,81	1510,38
328,02	1482,32
328,23	1501,57
328,45	1531,88
328,66	1467,37
328,87	1523,07
329,08	1542,33
329,29	1526,35
329,51	1498,29
329,72	1477,61
329,93	1521,03
330,14	1477,00
330,35	1504,03
330,56	1492,76
330,78	1480,68
330,99	1517,75
331,20	1555,84
331,41	1513,45
331,62	1515,29
331,84	1506,08
332,05	1495,84
332,26	1539,05
332,47	1542,53
332,68	1449,96
332,90	1470,65
333,11	1440,34
333,32	1600,90
333,53	1518,77
333,74	1433,17
333,95	1537,61
334,17	1530,65
334,38	1513,65
334,59	1460,61
334,80	1494,81
335,01	1565,47
335,22	1506,69
335,44	1507,10
335,65	1475,56
335,86	1549,29
336,07	1495,84
336,28	1460,20
336,49	1449,55
336,71	1465,73
336,92	1560,96
337,13	1497,07
337,34	1481,91
337,55	1593,73
337,76	1508,74
337,97	1522,66
338,19	1513,45
338,40	1483,14
338,61	1505,05
338,82	1538,84
339,03	1523,07
339,24	1468,60
339,45	1456,72
339,67	1517,54
339,88	1527,38
340,09	1496,25
340,30	1469,21
340,51	1577,35
340,72	1492,15
340,93	1459,59
341,15	1503,82
341,36	1564,44
341,57	1525,94
341,78	1475,36
341,99	1533,52
342,20	1551,75
342,41	1473,72
342,62	1583,08
342,84	1439,72
343,05	1552,97
343,26	1459,79
343,47	1529,42
343,68	1426,82
343,89	1474,74
344,10	1511,20
344,31	1491,74
344,53	1451,40
344,74	1507,30
344,95	1470,03
345,16	1491,13
345,37	1524,10
345,58	1514,27
345,79	1448,12
346,00	1471,06
346,21	1483,96
346,42	1492,97
346,64	1477,81
346,85	1514,06
347,06	1518,36
347,27	1470,44
347,48	1573,66
347,69	1543,76
347,90	1496,86
348,11	1508,12
348,32	1461,23
348,53	1489,49
348,75	1466,55
348,96	1526,97
349,17	1456,92
349,38	1479,66
349,59	1472,28
349,80	1453,03
350,01	1556,25
350,22	1549,08
350,43	1487,64
350,64	1538,43
350,85	1532,90
351,06	1457,54
351,28	1482,93
351,49	1458,77
351,70	1498,91
351,91	1467,37
352,12	1476,79
352,33	1495,02
352,54	1457,13
352,75	1450,17
352,96	1479,04
353,17	1526,76
353,38	1498,91
353,59	1552,16
353,80	1594,55
354,01	1542,33
354,22	1501,16
354,44	1470,24
354,65	1576,32
354,86	1512,83
355,07	1471,47
355,28	1449,14
355,49	1472,69
355,70	1478,84
355,91	1493,99
356,12	1443,41
356,33	1463,07
356,54	1521,64
356,75	1513,86
356,96	1511,20
357,17	1529,22
357,38	1507,30
357,59	1504,03
357,80	1522,26
358,01	1513,65
358,22	1522,46
358,43	1511,61
358,64	1504,44
358,85	1464,09
359,07	1554,41
359,28	1470,03
359,49	1514,68
359,70	1473,51
359,91	1499,11
360,12	1470,65
360,33	1546,83
360,54	1475,77
360,75	1476,18
360,96	1470,85
361,17	1448,53
361,38	1469,21
361,59	1564,03
361,80	1451,81
362,01	1526,97
362,22	1498,50
362,43	1471,88
362,64	1507,10
362,85	1500,55
363,06	1561,17
363,27	1505,46
363,48	1547,04
363,69	1577,96
363,90	1479,86
364,11	1520,82
364,32	1471,47
364,53	1516,52
364,74	1526,97
364,95	1508,53
365,16	1475,97
365,37	1586,77
365,58	1487,03
365,79	1483,96
366,00	1511,61
366,21	1470,44
366,42	1527,17
366,63	1557,48
366,84	1482,11
367,05	1499,93
367,26	1529,83
367,47	1561,78
367,68	1509,35
367,89	1517,75
368,10	1509,97
368,31	1464,71
368,52	1529,22
368,73	1521,23
368,94	1488,87
369,15	1516,73
369,36	1471,06
369,57	1484,78
369,78	1466,96
369,99	1482,11
370,20	1547,45
370,40	1472,08
370,61	1458,15
370,82	1507,92
371,03	1490,72
371,24	1524,10
371,45	1553,59
371,66	1419,24
371,87	1520,00
372,08	1530,24
372,29	1499,11
372,50	1526,97
372,71	1503,41
372,92	1533,52
373,13	1484,37
373,34	1479,25
373,55	1465,32
373,76	1548,26
373,97	1514,68
374,18	1504,44
374,39	1487,03
374,60	1568,13
374,81	1498,29
375,01	1460,41
375,22	1510,99
375,43	1470,44
375,64	1460,82
375,85	1477,00
376,06	1486,01
376,27	1490,72
376,48	1501,78
376,69	1550,93
376,90	1508,53
377,11	1522,66
377,32	1503,82
377,53	1506,28
377,74	1490,10
377,94	1482,11
378,15	1515,91
378,36	1546,01
378,57	1442,18
378,78	1586,15
378,99	1450,58
379,20	1602,95
379,41	1509,97
379,62	1512,22
379,83	1460,82
380,04	1517,34
380,25	1492,15
380,45	1511,40
380,66	1533,31
380,87	1491,54
381,08	1499,11
381,29	1470,44
381,50	1521,03
381,71	1522,46
381,92	1510,79
382,13	1445,46
382,34	1508,94
382,55	1479,04
382,75	1524,30
382,96	1554,41
383,17	1463,89
383,38	1585,74
383,59	1545,40
383,80	1479,25
384,01	1494,61
384,22	1573,25
384,43	1519,80
384,63	1510,99
384,84	1491,54
385,05	1534,34
385,26	1516,11
385,47	1514,88
385,68	1488,46
385,89	1548,06
386,10	1460,41
386,30	1513,04
386,51	1454,06
386,72	1485,19
386,93	1448,53
387,14	1516,73
387,35	1518,77
387,56	1576,53
387,77	1461,02
387,97	1500,96
388,18	1485,19
388,39	1495,43
388,60	1506,90
388,81	1527,78
389,02	1514,88
389,23	1515,09
389,43	1509,35
389,64	1517,95
389,85	1479,86
390,06	1552,77
390,27	1471,06
390,48	1559,12
390,69	1494,40
390,89	1504,64
391,10	1496,66
391,31	1485,19
391,52	1486,83
391,73	1527,99
391,94	1499,93
392,14	1465,12
392,35	1475,56
392,56	1503,21
392,77	1489,90
392,98	1495,43
393,19	1523,28
393,39	1544,78
393,60	1503,41
393,81	1522,87
394,02	1555,23
394,23	1446,28
394,44	1436,85
394,64	1511,20
394,85	1523,89
395,06	1548,88
395,27	1495,84
395,48	1557,69
395,69	1570,38
395,89	1527,38
396,10	1518,57
396,31	1587,38
396,52	1463,27
396,73	1526,97
396,93	1481,09
397,14	1566,29
397,35	1551,75
397,56	1568,13
397,77	1482,11
397,97	1530,86
398,18	1500,96
398,39	1518,98
398,60	1518,16
398,81	1477,00
399,01	1484,57
399,22	1512,63
399,43	1565,26
399,64	1574,27
399,85	1528,81
400,05	1481,30
400,26	1429,07
400,47	1501,16
400,68	1482,52
400,89	1612,57
401,09	1471,26
401,30	1531,88
401,51	1543,55
401,72	1517,95
401,93	1602,13
402,13	1509,15
402,34	1550,52
402,55	1566,90
402,76	1534,95
402,96	1507,92
403,17	1521,44
403,38	1567,31
403,59	1583,49
403,80	1563,62
404,00	1567,31
404,21	1549,70
404,42	1515,91
404,63	1527,17
404,83	1518,36
405,04	1547,24
405,25	1609,09
405,46	1604,17
405,66	1527,99
405,87	1568,13
406,08	1521,44
406,29	1589,43
406,49	1538,23
406,70	1578,98
406,91	1490,72
407,12	1562,60
407,32	1618,92
407,53	1585,13
407,74	1564,03
407,95	1608,88
408,15	1571,20
408,36	1536,59
408,57	1598,64
408,78	1596,19
408,98	1628,14
409,19	1622,61
409,40	1594,14
409,61	1580,42
409,81	1627,32
410,02	1585,54
410,23	1600,90
410,44	1668,68
410,64	1575,09
410,85	1598,03
411,06	1595,78
411,26	1741,39
411,47	1620,35
411,68	1691,62
411,89	1639,60
412,09	1642,27
412,30	1671,35
412,51	1651,48
412,72	1649,84
412,92	1660,90
413,13	1657,83
413,34	1639,60
413,54	1680,77
413,75	1693,26
413,96	1687,53
414,17	1676,06
414,37	1713,13
414,58	1767,40
414,79	1725,00
414,99	1765,76
415,20	1774,77
415,41	1721,73
415,61	1765,55
415,82	1802,62
416,03	1794,64
416,24	1765,96
416,44	1837,44
416,65	1856,48
416,86	1904,20
417,06	1801,80
417,27	1859,35
417,48	1860,99
417,68	1844,61
417,89	1911,98
418,10	1870,61
418,30	1960,52
418,51	1950,08
418,72	1949,26
418,92	1958,47
419,13	1995,34
419,34	2007,01
419,55	2049,20
419,75	2482,34
419,96	2058,00
420,17	2154,26
420,37	2094,05
420,58	2129,07
420,79	2097,12
420,99	2152,82
421,20	2281,64
421,41	2198,49
421,61	2251,33
421,82	2181,29
422,03	2285,33
422,23	2278,16
422,44	2344,51
422,65	2431,76
422,85	2348,41
423,06	2448,96
423,26	2489,92
423,47	2570,20
423,68	2576,55
423,88	2548,90
424,09	2575,32
424,30	2655,19
424,50	2594,98
424,71	2702,70
424,92	2764,14
425,12	2861,22
425,33	2882,93
425,54	2868,79
425,74	2930,03
425,95	2951,33
426,15	3011,95
426,36	3008,06
426,57	3167,39
426,77	3165,55
426,98	3181,72
427,19	3224,73
427,39	3296,21
427,60	3389,39
427,81	3436,70
428,01	3454,92
428,22	3594,59
428,42	3538,89
428,63	3646,82
428,84	3674,67
429,04	3793,66
429,25	3839,74
429,45	3847,31
429,66	4088,77
429,87	4118,26
430,07	4210,21
430,28	4259,16
430,49	4342,51
430,69	4448,39
430,90	4476,65
431,10	4514,75
431,31	4701,32
431,52	4863,93
431,72	4811,70
431,93	4833,82
432,13	5072,61
432,34	5234,20
432,55	5132,82
432,75	5429,57
432,96	5555,12
433,16	5632,73
433,37	5779,57
433,58	5953,65
433,78	6057,89
433,99	5800,87
434,19	6226,23
434,40	6387,41
434,60	6572,96
434,81	6681,09
435,02	6677,61
435,22	6886,50
435,43	6887,52
435,63	7081,26
435,84	7399,31
436,05	7613,53
436,25	7367,57
436,46	7920,31
436,66	8021,07
436,87	8148,05
437,07	8125,73
437,28	8379,26
437,48	8732,33
437,69	8712,88
437,90	9093,19
438,10	9225,08
438,31	9356,35
438,51	9837,42
438,72	9783,97
438,92	9987,74
439,13	10319,51
439,34	10464,71
439,54	10776,00
439,75	10793,20
439,95	10984,89
440,16	11345,75
440,36	11641,27
440,57	11726,46
440,77	12240,30
440,98	12183,78
441,18	12347,20
441,39	12661,77
441,60	13337,40
441,80	13384,70
442,01	13156,36
442,21	14036,57
442,42	13886,46
442,62	14339,47
442,83	14625,36
443,03	15016,94
443,24	15243,65
443,44	15574,19
443,65	15981,94
443,85	16127,96
444,06	16522,19
444,26	17028,04
444,47	17063,27
444,67	17961,10
444,88	17992,22
445,09	18067,79
445,29	18977,30
445,50	19170,42
445,70	19230,63
445,91	19849,73
446,11	19846,46
446,32	20822,93
446,52	21146,10
446,73	21295,39
446,93	22087,14
447,14	22155,34
447,34	22923,53
447,55	22480,55
447,75	23655,88
447,96	24498,83
448,16	24369,19
448,37	24913,74
448,57	25130,83
448,78	26137,41
448,98	26253,32
449,19	26625,23
449,39	27793,19
449,60	27592,69
449,80	28771,71
450,01	29294,35
450,21	29487,47
450,42	30138,93
450,62	30350,69
450,83	31007,89
451,03	31237,05
451,23	32325,96
451,44	32761,56
451,64	33723,70
451,85	33978,05
452,05	35236,33
452,26	35493,96
452,46	35490,48
452,67	36184,95
452,87	36085,62
453,08	37286,75
453,28	36132,72
453,49	39080,98
453,69	37990,84
453,90	39222,70
454,10	40011,78
454,31	40599,14
454,51	40594,84
454,71	41611,04
454,92	41932,36
455,12	42261,06
455,33	43417,55
455,53	44623,81
455,74	46228,80
455,94	46478,86
456,15	47657,26
456,35	49314,27
456,55	48426,06
456,76	49827,28
456,96	52378,85
457,17	49224,57
457,37	54210,76
457,58	52486,37
457,78	54444,23
457,99	53652,89
458,19	51228,91
458,39	53627,70
458,60	55875,14
458,80	54754,90
459,01	54086,04
459,21	53376,41
459,42	55379,74
459,62	52893,30
459,82	57275,95
460,03	55891,12
460,23	55730,35
460,44	56078,09
460,64	52855,62
460,85	57342,72
461,05	53938,17
461,25	53981,38
461,46	57283,94
461,66	55603,58
461,87	54323,80
462,07	54469,42
462,27	52369,02
462,48	52099,30
462,68	53113,86
462,89	52816,29
463,09	51230,96
463,29	52752,81
463,50	51808,28
463,70	52469,98
463,91	50075,91
464,11	50189,98
464,31	50438,40
464,52	50057,27
464,72	50511,51
464,93	49335,77
465,13	49567,60
465,33	47622,65
465,54	46648,02
465,74	45840,71
465,95	46684,06
466,15	45808,96
466,35	46426,63
466,56	45646,36
466,76	45282,43
466,96	44156,25
467,17	43828,99
467,37	43193,30
467,58	42527,10
467,78	42012,03
467,98	42254,10
468,19	40566,98
468,39	41450,89
468,59	40882,58
468,80	39124,40
469,00	38706,81
469,21	38035,90
469,41	37608,90
469,61	38214,28
469,82	36357,59
470,02	37007,41
470,22	37273,85
470,43	36210,34
470,63	34968,04
470,83	36208,70
471,04	34426,35
471,24	33908,42
471,45	33322,91
471,65	33456,23
471,85	32245,27
472,06	32622,91
472,26	31921,48
472,46	31475,64
472,67	31432,02
472,87	30804,93
473,07	30334,92
473,28	29621,00
473,48	30034,69
473,68	29561,20
473,89	29043,47
474,09	28999,65
474,29	28191,52
474,50	28281,63
474,70	27597,20
474,90	27653,93
475,11	27326,05
475,31	26839,65
475,51	26359,41
475,72	26030,91
475,92	25587,53
476,12	24958,39
476,33	25368,39
476,53	24945,08
476,73	24757,28
476,93	24709,56
477,14	24023,70
477,34	23700,73
477,54	23587,28
477,75	23353,19
477,95	22945,03
478,15	22679,00
478,36	22631,69
478,56	22090,41
478,76	22086,93
478,97	21710,11
479,17	21100,02
479,37	20856,92
479,57	20739,17
479,78	20341,86
479,98	20082,59
480,18	20043,27
480,39	19765,77
480,59	19609,92
480,79	19281,83
480,99	18920,16
481,20	18712,90
481,40	18430,08
481,60	18203,58
481,81	17919,32
482,01	17706,94
482,21	17427,19
482,41	17091,12
482,62	16779,83
482,82	16581,38
483,02	16715,93
483,23	16187,35
483,43	16222,57
483,63	15649,14
483,83	15536,91
484,04	15712,84
484,24	15153,94
484,44	15086,77
484,64	14645,43
484,85	14438,18
485,05	14167,03
485,25	14044,15
485,45	13711,97
485,66	13624,32
485,86	13256,30
486,06	13101,47
486,26	12941,32
486,47	12664,23
486,67	12545,86
486,87	12410,49
487,07	12263,03
487,28	11886,21
487,48	11688,78
487,68	11735,07
487,88	11474,97
488,09	11280,83
488,29	10974,65
488,49	11027,90
488,69	10679,75
488,90	10665,21
489,10	10369,89
489,30	10132,94
489,50	10012,52
489,71	10002,48
489,91	9888,41
490,11	9661,91
490,31	9523,87
490,52	9390,35
490,72	9141,52
490,92	9286,72
491,12	9037,48
491,32	8874,26
491,53	8788,45
491,73	8649,19
491,93	8489,44
492,13	8455,65
492,33	8263,96
492,54	8064,90
492,74	8068,59
492,94	7908,85
493,14	7819,55
493,35	7624,79
493,55	7516,05
493,75	7480,21
493,95	7346,88
494,15	7209,67
494,36	7257,80
494,56	7011,02
494,76	6935,86
494,96	6827,31
495,16	6780,21
495,37	6735,36
495,57	6551,25
495,77	6508,24
495,97	6400,31
496,17	6331,30
496,37	6302,21
496,58	6242,21
496,78	6008,33
496,98	5937,27
497,18	5976,38
497,38	5885,86
497,59	5901,02
497,79	5620,86
497,99	5662,43
498,19	5566,58
498,39	5567,81
498,59	5316,73
498,80	5358,31
499,00	5230,92
499,20	5176,45
499,40	5033,50
499,60	5046,81
499,80	4983,12
500,01	4904,48
500,21	4814,57
500,41	4782,83
500,61	4749,85
500,81	4596,67
501,01	4565,95
501,22	4488,94
501,42	4365,04
501,62	4366,47
501,82	4312,20
502,02	4237,25
502,22	4146,32
502,42	4087,54
502,63	4126,45
502,83	4063,58
503,03	3989,24
503,23	3883,36
503,43	3851,41
503,63	3876,40
503,83	3805,33
504,04	3666,07
504,24	3698,43
504,44	3621,42
504,64	3534,79
504,84	3564,28
505,04	3427,89
505,24	3415,19
505,44	3361,95
505,65	3387,95
505,85	3379,97
506,05	3233,54
506,25	3190,94
506,45	3210,19
506,65	3111,89
506,85	3049,43
507,05	3138,10
507,26	3098,17
507,46	3076,66
507,66	2995,15
507,86	2937,61
508,06	2984,10
508,26	2902,18
508,46	2934,53
508,66	2892,14
508,86	2921,02
509,06	2836,85
509,27	2874,12
509,47	2831,73
509,67	2773,77
509,87	2764,55
510,07	2798,34
510,27	2730,15
510,47	2786,67
510,67	2789,13
510,87	2685,71
511,07	2655,19
511,28	2642,29
511,48	2629,80
511,68	2610,14
511,88	2532,72
512,08	2516,54
512,28	2508,15
512,48	2568,97
512,68	2490,33
512,88	2478,25
513,08	2540,51
513,28	2551,15
513,48	2497,09
513,68	2469,65
513,89	2463,71
514,09	2427,25
514,29	2342,47
514,49	2380,15
514,69	2383,43
514,89	2339,60
515,09	2334,27
515,29	2318,71
515,49	2300,28
515,69	2342,88
515,89	2334,89
516,09	2272,22
516,29	2220,82
516,49	2199,72
516,69	2250,51
516,89	2213,85
517,09	2210,37
517,29	2215,49
517,50	2113,71
517,70	2142,58
517,90	2175,35
518,10	2173,10
518,30	2142,58
518,50	2156,31
518,70	2130,91
518,90	2153,64
519,10	2148,73
519,30	2063,53
519,50	2081,56
519,70	2120,06
519,90	2122,31
520,10	2078,07
520,30	2058,82
520,50	2008,85
520,70	2026,06
520,90	2132,35
521,10	1985,30
521,30	1988,58
521,50	2056,57
521,70	2032,81
521,90	2018,68
522,10	2016,43
522,30	1986,12
522,50	1958,06
522,70	1973,83
522,90	1959,29
523,10	1984,89
523,30	1943,93
523,50	1974,65
523,70	1948,03
523,90	1870,61
524,10	1901,74
524,30	1891,09
524,50	1926,11
524,70	1933,08
524,90	1887,41
525,10	1921,40
525,30	1883,72
525,50	1849,11
525,70	1835,18
525,90	1858,74
526,10	1863,04
526,30	1859,76
526,50	1841,12
526,70	1817,37
526,90	1794,64
527,10	1804,26
527,30	1819,83
527,50	1848,70
527,70	1813,07
527,90	1798,53
528,10	1835,18
528,30	1800,16
528,50	1818,19
528,70	1765,96
528,90	1777,02
529,10	1775,59
529,30	1766,99
529,50	1814,71
529,70	1776,82
529,90	1787,06
530,10	1786,65
530,29	1829,25
530,49	1774,77
530,69	1762,89
530,89	1753,06
531,09	1735,45
531,29	1763,51
531,49	1689,37
531,69	1775,79
531,89	1709,64
532,09	1738,93
532,29	1762,28
532,49	1746,92
532,69	1700,63
532,89	1680,56
533,09	1706,98
533,29	1626,09
533,49	1682,41
533,68	1683,02
533,88	1728,28
534,08	1661,52
534,28	1645,95
534,48	1672,37
534,68	1640,22
534,88	1686,09
535,08	1657,22
535,28	1731,35
535,48	1681,59
535,68	1684,04
535,88	1727,46
536,08	1658,04
536,27	1646,36
536,47	1704,11
536,67	1697,97
536,87	1624,04
537,07	1671,35
537,27	1689,98
537,47	1649,23
537,67	1590,66
537,87	1608,47
538,07	1611,96
538,27	1674,01
538,46	1700,43
538,66	1600,69
538,86	1603,56
539,06	1652,71
539,26	1616,05
539,46	1594,55
539,66	1617,28
539,86	1615,03
540,06	1627,32
540,25	1673,19
540,45	1582,67
540,65	1627,52
540,85	1630,80
541,05	1654,35
541,25	1635,10
541,45	1622,81
541,65	1656,60
541,85	1632,03
542,04	1594,75
542,24	1635,51
542,44	1641,45
542,64	1621,79
542,84	1597,01
543,04	1558,91
543,24	1634,69
543,43	1581,24
543,63	1660,49
543,83	1609,29
544,03	1599,46
544,23	1611,75
544,43	1564,44
544,63	1613,39
544,82	1603,97
545,02	1577,35
545,22	1628,14
545,42	1577,76
545,62	1582,06
545,82	1556,66
546,02	1565,67
546,21	1605,20
546,41	1589,22
546,61	1542,33
546,81	1556,87
547,01	1655,99
547,21	1597,83
547,40	1557,89
547,60	1625,47
547,80	1584,72
548,00	1516,73
548,20	1571,41
548,40	1573,66
548,59	1521,03
548,79	1627,52
548,99	1591,68
549,19	1573,45
549,39	1574,07
549,59	1561,17
549,78	1603,15
549,98	1552,16
550,18	1536,80
550,38	1622,20
550,58	1569,36
550,77	1571,00
550,97	1552,57
551,17	1597,83
551,37	1586,77
551,57	1568,54
551,76	1586,97
551,96	1541,10
552,16	1599,05
552,36	1575,91
552,56	1581,24
552,75	1544,78
552,95	1505,67
553,15	1587,59
553,35	1661,11
553,55	1550,52
553,74	1580,21
553,94	1514,88
554,14	1502,19
554,34	1581,85
554,54	1582,47
554,73	1486,21
554,93	1527,78
555,13	1554,82
555,33	1536,59
555,53	1475,15
555,72	1559,32
555,92	1639,40
556,12	1571,61
556,32	1574,27
556,51	1563,01
556,71	1541,71
556,91	1565,67
557,11	1532,09
557,30	1574,27
557,50	1569,56
557,70	1515,70
557,90	1529,01
558,10	1520,00
558,29	1584,10
558,49	1549,49
558,69	1555,43
558,89	1540,28
559,08	1596,80
559,28	1487,03
559,48	1503,21
559,68	1535,57
559,87	1600,49
560,07	1531,06
560,27	1558,50
560,47	1552,57
560,66	1485,19
560,86	1551,13
561,06	1555,23
561,25	1508,33
561,45	1552,16
561,65	1530,65
561,85	1541,30
562,04	1538,23
562,24	1556,66
562,44	1533,11
562,64	1583,90
562,83	1648,41
563,03	1608,88
563,23	1506,08
563,42	1549,70
563,62	1479,45
563,82	1513,86
564,02	1467,78
564,21	1536,59
564,41	1497,27
564,61	1516,11
564,80	1501,16
565,00	1557,48
565,20	1512,83
565,40	1635,92
565,59	1450,37
565,79	1531,88
565,99	1548,88
566,18	1550,52
566,38	1532,90
566,58	1533,52
566,78	1486,21
566,97	1560,76
567,17	1586,56
567,37	1492,97
567,56	1538,23
567,76	1550,93
567,96	1482,32
568,15	1516,73
568,35	1531,06
568,55	1547,04
568,74	1526,56
568,94	1509,97
569,14	1508,74
569,33	1486,21
569,53	1498,70
569,73	1488,05
569,92	1596,39
570,12	1527,58
570,32	1520,21
570,52	1497,88
570,71	1499,32
570,91	1589,84
571,11	1515,91
571,30	1543,76
571,50	1507,10
571,70	1553,38
571,89	1562,19
572,09	1578,57
572,28	1486,42
572,48	1452,83
572,68	1451,60
572,87	1498,09
573,07	1519,59
573,27	1565,67
573,46	1547,85
573,66	1514,47
573,86	1495,43
574,05	1535,77
574,25	1485,60
574,45	1482,52
574,64	1537,41
574,84	1631,21
575,04	1521,85
575,23	1557,89
575,43	1514,68
575,62	1529,01
575,82	1546,22
576,02	1479,04
576,21	1498,91
576,41	1461,43
576,61	1529,22
576,80	1547,45
577,00	1460,20
577,19	1463,07
577,39	1520,82
577,59	1523,48
577,78	1527,78
577,98	1523,07
578,18	1527,17
578,37	1531,27
578,57	1530,65
578,76	1548,88
578,96	1510,99
579,16	1508,74
579,35	1520,21
579,55	1453,03
579,74	1583,08
579,94	1449,96
580,14	1601,72
580,33	1531,47
580,53	1500,55
580,72	1529,83
580,92	1509,56
581,12	1505,26
581,31	1524,10
581,51	1521,44
581,70	1482,11
581,90	1475,77
582,10	1560,14
582,29	1538,84
582,49	1500,55
582,68	1484,57
582,88	1501,78
583,07	1645,13
583,27	1523,07
583,47	1599,87
583,66	1501,78
583,86	1489,08
584,05	1530,45
584,25	1515,29
584,44	1570,38
584,64	1550,93
584,84	1437,06
585,03	1511,20
585,23	1466,35
585,42	1472,69
585,62	1481,50
585,81	1475,36
586,01	1524,92
586,20	1529,01
586,40	1510,79
586,60	1590,66
586,79	1538,02
586,99	1527,58
587,18	1509,35
587,38	1433,78
587,57	1422,72
587,77	1502,39
587,96	1536,59
588,16	1473,72
588,35	1494,81
588,55	1567,92
588,75	1551,13
588,94	1510,17
589,14	1484,78
589,33	1465,73
589,53	1517,34
589,72	1469,83
589,92	1477,61
590,11	1516,73
590,31	1528,19
590,50	1540,07
590,70	1552,36
590,89	1533,52
591,09	1526,97
591,28	1578,16
591,48	1472,90
591,67	1553,59
591,87	1447,71
592,06	1507,51
592,26	1493,79
592,45	1492,56
592,65	1552,77
592,84	1481,30
593,04	1462,66
593,23	1493,58
593,43	1464,50
593,62	1522,46
593,82	1504,64
594,01	1484,98
594,21	1511,20
594,40	1489,69
594,60	1447,09
594,79	1522,46
594,99	1520,62
595,18	1453,44
595,38	1544,17
595,57	1498,91
595,77	1539,46
595,96	1553,79
596,16	1510,38
596,35	1498,29
596,55	1500,96
596,74	1542,53
596,94	1502,19
597,13	1539,66
597,33	1468,19
597,52	1498,70
597,72	1469,62
597,91	1581,85
598,11	1456,92
598,30	1495,84
598,50	1499,93
598,69	1489,69
598,88	1476,38
599,08	1520,62
599,27	1500,75
599,47	1423,95
599,66	1506,49
599,86	1487,85
600,05	1488,87
600,25	1515,50
600,44	1535,36
600,64	1539,25
600,83	1485,80
601,02	1561,17
601,22	1500,34
601,41	1543,55
601,61	1485,80
601,80	1526,35
602,00	1471,47
602,19	1481,09
602,38	1462,45
602,58	1476,79
602,77	1488,26
602,97	1446,69
603,16	1503,41
603,36	1488,87
603,55	1512,22
603,74	1475,36
603,94	1455,29
604,13	1542,12
604,33	1520,82
604,52	1446,89
604,72	1481,50
604,91	1486,42
605,10	1457,33
605,30	1479,66
605,49	1556,87
605,69	1551,54
605,88	1515,91
606,07	1513,86
606,27	1571,41
606,46	1497,27
606,66	1493,58
606,85	1431,94
607,04	1475,97
607,24	1483,96
607,43	1530,04
607,63	1460,41
607,82	1487,85
608,01	1497,47
608,21	1494,61
608,40	1498,50
608,60	1492,76
608,79	1516,93
608,98	1487,64
609,18	1527,58
609,37	1572,84
609,57	1501,16
609,76	1534,34
609,95	1480,07
610,15	1505,05
610,34	1536,80
610,53	1482,11
610,73	1480,27
610,92	1482,11
611,11	1495,63
611,31	1531,27
611,50	1450,99
611,70	1524,71
611,89	1484,16
612,08	1526,97
612,28	1482,32
612,47	1532,29
612,66	1489,69
612,86	1590,25
613,05	1535,57
613,24	1527,17
613,44	1512,63
613,63	1502,59
613,82	1551,34
614,02	1517,54
614,21	1497,27
614,41	1464,50
614,60	1555,64
614,79	1482,32
614,99	1551,34
615,18	1493,38
615,37	1529,01
615,57	1492,15
615,76	1477,81
615,95	1458,77
616,15	1499,73
616,34	1576,94
616,53	1546,22
616,73	1495,84
616,92	1495,02
617,11	1510,38
617,30	1464,09
617,50	1467,57
617,69	1560,96
617,88	1550,93
618,08	1567,92
618,27	1498,91
618,46	1507,10
618,66	1491,13
618,85	1460,61
619,04	1516,32
619,24	1548,26
619,43	1558,71
619,62	1466,96
619,82	1521,64
620,01	1488,05
620,20	1447,91
620,39	1490,51
620,59	1530,86
620,78	1505,67
620,97	1558,09
621,17	1530,24
621,36	1496,25
621,55	1476,18
621,74	1507,71
621,94	1421,50
622,13	1586,77
622,32	1477,61
622,52	1481,71
622,71	1521,03
622,90	1551,95
623,09	1476,18
623,29	1459,59
623,48	1518,77
623,67	1452,01
623,86	1527,78
624,06	1412,89
624,25	1490,10
624,44	1560,14
624,64	1513,86
624,83	1473,51
625,02	1522,87
625,21	1558,91
625,41	1482,32
625,60	1498,09
625,79	1446,89
625,98	1480,48
626,18	1493,99
626,37	1530,04
626,56	1475,56
626,75	1459,79
626,95	1513,04
627,14	1453,24
627,33	1512,02
627,52	1478,22
627,72	1500,34
627,91	1588,61
628,10	1487,64
628,29	1513,45
628,49	1498,91
628,68	1562,19
628,87	1493,79
629,06	1577,14
629,25	1468,60
629,45	1504,44
629,64	1566,29
629,83	1505,05
630,02	1465,94
630,22	1528,40
630,41	1480,68
630,60	1486,21
630,79	1487,03
630,98	1500,96
631,18	1445,87
631,37	1411,46
631,56	1479,45
631,75	1516,93
631,94	1487,23
632,14	1463,27
632,33	1436,24
632,52	1442,59
632,71	1885,97
632,90	1498,09
633,10	1471,26
633,29	1495,43
633,48	1482,52
633,67	1467,37
633,86	1545,40
634,06	1468,80
634,25	1508,94
634,44	1551,34
634,63	1499,32
634,82	1461,84
635,02	1480,48
635,21	1446,07
635,40	1447,71
635,59	1455,70
635,78	1508,33
635,97	1497,68
636,17	1482,32
636,36	1514,06
636,55	1534,54
636,74	1493,99
636,93	1490,92
637,12	1522,26
637,32	1493,99
637,51	1451,19
637,70	1541,51
637,89	1468,39
638,08	1448,12
638,27	1530,04
638,47	1491,95
638,66	1465,73
638,85	1469,83
639,04	1459,59
639,23	1503,21
639,42	1498,91
639,62	1554,41
639,81	1510,38
640,00	1529,63
640,19	1501,16
640,38	1473,10
640,57	1510,79
640,76	1546,22
640,95	1465,73
641,15	1459,59
641,34	1513,86
641,53	1475,36
641,72	1554,00
641,91	1516,32
642,10	1451,81
642,29	1527,58
642,49	1466,55
642,68	1449,76
642,87	1479,04
643,06	1502,19
643,25	1506,28
643,44	1471,67
643,63	1495,63
643,82	1478,43
644,01	1494,20
644,21	1471,88
644,40	1539,46
644,59	1498,70
644,78	1500,55
644,97	1623,02
645,16	1503,62
645,35	1498,70
645,54	1466,55
645,73	1483,55
645,92	1502,19
646,12	1488,67
646,31	1471,06
646,50	1471,47
646,69	1518,98
646,88	1456,11
647,07	1513,65
647,26	1480,27
647,45	1468,60
647,64	1503,21
647,83	1456,72
648,02	1519,59
648,22	1510,58
648,41	1466,35
648,60	1471,06
648,79	1505,67
648,98	1518,16
649,17	1506,49
649,36	1436,24
649,55	1446,28
649,74	1529,42
649,93	1471,47
650,12	1499,32
650,31	1535,77
650,50	1516,73
650,69	1544,78
650,88	1531,06
651,08	1470,03
651,27	1541,51
651,46	1522,05
651,65	1453,85
651,84	1431,12
652,03	1480,48
652,22	1449,14
652,41	1439,72
652,60	1587,38
652,79	1532,70
652,98	1501,98
653,17	1472,69
653,36	1520,82
653,55	1504,03
653,74	1510,38
653,93	1494,40
654,12	1472,49
654,31	1460,00
654,50	1502,59
654,69	1534,54
654,88	1506,90
655,07	1441,97
655,26	1454,67
655,45	1445,66
655,64	1444,64
655,83	1496,25
656,02	1528,60
656,21	1448,53
656,40	1463,68
656,59	1487,64
656,78	1457,54
656,97	1460,82
657,17	1535,98
657,36	1421,09
657,55	1589,22
657,74	1512,42
657,93	1508,33
658,12	1499,93
658,31	1465,53
658,50	1470,44
658,69	1451,60
658,87	1519,18
659,06	1479,04
659,25	1478,02
659,44	1463,27
659,63	1537,82
659,82	1504,64
660,01	1487,85
660,20	1479,25
660,39	1525,33
660,58	1469,01
660,77	1471,67
660,96	1509,56
661,15	1503,41
661,34	1499,52
661,53	1487,23
661,72	1511,81
661,91	1457,54
662,10	1477,40
662,29	1433,17
662,48	1458,77
662,67	1462,25
662,86	1465,73
663,05	1474,33
663,24	1513,86
663,43	1484,37
663,62	1554,61
663,81	1459,38
664,00	1538,02
664,19	1440,13
664,38	1498,29
664,57	1423,54
664,76	1483,34
664,94	1441,16
665,13	1472,28
665,32	1433,37
665,51	1492,97
665,70	1440,54
665,89	1485,80
666,08	1494,20
666,27	1440,13
666,46	1497,68
666,65	1492,76
666,84	1428,66
667,03	1450,58
667,22	1439,72
667,41	1525,33
667,60	1464,50
667,78	1486,42
667,97	1515,91
668,16	1513,86
668,35	1473,51
668,54	1480,27
668,73	1474,13
668,92	1469,62
669,11	1444,84
669,30	1486,83
669,49	1471,67
669,68	1530,04
669,86	1476,59
670,05	1478,02
670,24	1461,84
670,43	1473,92
670,62	1517,34
670,81	1476,79
671,00	1484,57
671,19	1526,15
671,38	1475,56
671,57	1465,53
671,75	1446,07
671,94	1485,19
672,13	1502,39
672,32	1460,61
672,51	1458,56
672,70	1515,70
672,89	1477,00
673,08	1450,17
673,26	1480,68
673,45	1475,36
673,64	1461,23
673,83	1497,68
674,02	1431,94
674,21	1568,13
674,40	1527,58
674,59	1525,12
674,77	1516,93
674,96	1545,60
675,15	1522,66
675,34	1481,91
675,53	1567,11
675,72	1472,49
675,91	1517,54
676,09	1547,65
676,28	1607,45
676,47	1478,02
676,66	1441,57
676,85	1545,40
677,04	1515,50
677,22	1499,32
677,41	1482,73
677,60	1506,69
677,79	1453,24
677,98	1503,00
678,17	1426,62
678,36	1486,83
678,54	1440,95
678,73	1513,45
678,92	1437,26
679,11	1531,88
679,30	1454,47
679,48	1464,30
679,67	1484,98
679,86	1481,50
680,05	1526,35
680,24	1447,09
680,43	1470,03
680,61	1453,65
680,80	1442,18
680,99	1473,10
681,18	1444,43
681,37	1482,32
681,55	1555,43
681,74	1541,51
681,93	1461,43
682,12	1446,28
682,31	1450,78
682,49	1467,78
682,68	1518,77
682,87	1485,39
683,06	1444,02
683,25	1493,99
683,43	1528,81
683,62	1447,91
683,81	1524,10
684,00	1537,61
684,19	1492,15
684,37	1469,42
684,56	1474,54
684,75	1546,01
684,94	1459,18
685,12	1553,79
685,31	1469,42
685,50	1470,24
685,69	1482,32
685,88	1466,14
686,06	1467,57
686,25	1491,54
686,44	1499,93
686,63	1453,44
686,81	1527,17
687,00	1463,07
687,19	1467,37
687,38	1527,17
687,56	1459,79
687,75	1522,87
687,94	1431,94
688,13	1453,85
688,31	1452,01
688,50	1441,57
688,69	1469,21
688,88	1505,46
689,06	1511,20
689,25	1497,27
689,44	1432,35
689,63	1471,47
689,81	1458,36
690,00	1448,12
690,19	1494,40
690,38	1499,93
690,56	1446,28
690,75	1539,66
690,94	1498,29
691,13	1449,96
691,31	1505,05
691,50	1457,13
691,69	1488,26
691,87	1454,47
692,06	1497,68
692,25	1465,53
692,44	1435,83
692,62	1477,40
692,81	1599,05
693,00	1496,04
693,18	1472,49
693,37	1528,81
693,56	1412,28
693,75	1452,01
693,93	1517,95
694,12	1552,16
694,31	1483,96
694,49	1431,73
694,68	1466,76
694,87	1478,43
695,05	1480,48
695,24	1447,30
695,43	1455,29
695,62	1435,01
695,80	1445,46
695,99	1511,81
696,18	1462,25
696,36	1565,26
696,55	1462,25
696,74	1414,94
696,92	1548,47
697,11	1490,31
697,30	1521,23
697,48	1479,66
697,67	1455,49
697,86	1506,49
698,04	1427,43
698,23	1457,54
698,42	1501,78
698,60	1477,00
698,79	1484,37
698,98	1494,20
699,16	1438,49
699,35	1468,19
699,54	1490,31
699,72	1488,67
699,91	1582,88
700,10	1449,76
700,28	1487,64
700,47	1591,68
700,66	1478,22
700,84	1475,97
701,03	1440,54
701,21	1489,69
701,40	1444,43
701,59	1496,45
701,77	1447,91
701,96	1483,96
702,15	1478,22
702,33	1463,89
702,52	1443,20
702,71	1496,04
702,89	1465,32
703,08	1504,85
703,26	1525,94
703,45	1545,19
703,64	1510,99
703,82	1528,81
704,01	1469,21
704,20	1495,43
704,38	1516,93
704,57	1436,85
704,75	1440,54
704,94	1454,26
705,13	1491,74
705,31	1504,23
705,50	1473,51
705,68	1483,34
705,87	1527,78
706,06	1483,14
706,24	1462,25
706,43	1429,48
706,61	1500,34
706,80	1453,24
706,99	1508,74
707,17	1551,13
707,36	1475,77
707,54	1477,00
707,73	1447,71
707,92	1489,90
708,10	1442,18
708,29	1463,48
708,47	1482,73
708,66	1501,78
708,84	1478,22
709,03	1481,71
709,22	1489,08
709,40	1513,65
709,59	1490,72
709,77	1561,99
709,96	1501,37
710,14	1462,04
710,33	1530,45
710,52	1505,26
710,70	1534,54
710,89	1455,08
711,07	1468,39
711,26	1504,44
711,44	1514,68
711,63	1496,25
711,81	1509,15
712,00	1454,88
712,19	1502,80
712,37	1534,34
712,56	1500,14
712,74	1451,40
712,93	1521,44
713,11	1471,88
713,30	1451,40
713,48	1501,78
713,67	1464,71
713,85	1475,36
714,04	1500,34
714,22	1538,02
714,41	1494,81
714,59	1502,39
714,78	1503,82
714,97	1488,26
715,15	1467,16
715,34	1509,97
715,52	1440,34
715,71	1508,94
715,89	1462,66
716,08	1467,37
716,26	1425,80
716,45	1438,70
716,63	1453,65
716,82	1502,80
717,00	1411,05
717,19	1507,71
717,37	1464,71
717,56	1483,34
717,74	1468,60
717,93	1487,23
718,11	1539,46
718,30	1396,31
718,48	1488,26
718,67	1546,83
718,85	1470,85
719,04	1481,91
719,22	1418,83
719,41	1508,53
719,59	1539,87
719,78	1466,96
719,96	1434,40
720,15	1494,61
720,33	1470,85
720,52	1477,81
720,70	1448,53
720,88	1520,21
721,07	1441,36
721,25	1475,56
721,44	1436,04
721,62	1498,29
721,81	1410,44
721,99	1407,57
722,18	1486,01
722,36	1478,22
722,55	1460,00
722,73	1467,98
722,92	1496,25
723,10	1456,92
723,28	1479,45
723,47	1522,05
723,65	1518,98
723,84	1502,19
724,02	1421,29
724,21	1496,04
724,39	1444,43
724,58	1450,37
724,76	1500,14
724,94	1472,69
725,13	1512,02
725,31	1482,93
725,50	1522,05
725,68	1495,02
725,87	1460,82
726,05	1497,68
726,23	1480,48
726,42	1460,41
726,60	1462,04
726,79	1469,62
726,97	1474,74
727,16	1537,21
727,34	1478,02
727,52	1467,37
727,71	1520,82
727,89	1444,23
728,08	1450,17
728,26	1479,25
728,44	1490,31
728,63	1578,37
728,81	1466,96
729,00	1484,78
729,18	1476,59
729,36	1472,28
729,55	1487,44
729,73	1506,08
729,92	1500,75
730,10	1442,79
730,28	1441,97
730,47	1446,28
730,65	1474,54
730,84	1530,24
731,02	1442,18
731,20	1530,45
731,39	1491,95
731,57	1496,66
731,75	1520,62
731,94	1470,65
732,12	1520,21
732,31	1450,17
732,49	1449,35
732,67	1491,95
732,86	1438,70
733,04	1497,88
733,22	1432,96
733,41	1444,84
733,59	1470,85
733,78	1508,53
733,96	1510,17
734,14	1432,35
734,33	1428,87
734,51	1497,68
734,69	1487,03
734,88	1465,73
735,06	1458,36
735,24	1472,90
735,43	1525,12
735,61	1445,25
735,79	1506,49
735,98	1471,26
736,16	1556,05
736,34	1469,62
736,53	1480,89
736,71	1485,80
736,89	1454,67
737,08	1512,42
737,26	1474,33
737,44	1446,28
737,63	1467,98
737,81	1456,72
737,99	1506,28
738,18	1489,28
738,36	1532,29
738,54	1480,27
738,73	1509,76
738,91	1526,76
739,09	1443,82
739,28	1471,47
739,46	1432,76
739,64	1488,05
739,82	1488,46
740,01	1442,79
740,19	1584,31
740,37	1497,27
740,56	1491,33
740,74	1463,48
740,92	1461,43
741,11	1424,36
741,29	1473,31
741,47	1560,14
741,65	1439,31
741,84	1473,31
742,02	1548,26
742,20	1442,38
742,39	1452,62
742,57	1459,38
742,75	1454,47
742,93	1480,89
743,12	1492,97
743,30	1471,47
743,48	1469,42
743,67	1489,69
743,85	1439,93
744,03	1530,86
744,21	1465,94
744,40	1463,07
744,58	1480,27
744,76	1488,87
744,94	1453,44
745,13	1458,56
745,31	1445,46
745,49	1478,63
745,67	1434,19
745,86	1521,85
746,04	1464,09
746,22	1471,47
746,40	1441,77
746,59	1437,26
746,77	1502,59
746,95	1549,08
747,13	1464,71
747,32	1493,99
747,50	1482,73
747,68	1456,92
747,86	1448,53
748,05	1557,69
748,23	1490,92
748,41	1495,22
748,59	1447,91
748,77	1460,61
748,96	1456,92
749,14	1451,19
749,32	1566,08
749,50	1507,51
749,69	1495,22
749,87	1506,28
750,05	1486,01
750,23	1450,17
750,41	1465,94
750,60	1490,92
750,78	1427,02
750,96	1496,66
751,14	1500,34
751,32	1488,67
751,51	1437,47
751,69	1443,61
751,87	1392,00
752,05	1492,56
752,23	1482,73
752,42	1479,45
752,60	1485,80
752,78	1473,10
752,96	1444,02
753,14	1493,17
753,33	1438,08
753,51	1471,06
753,69	1459,18
753,87	1485,60
754,05	1497,27
754,23	1482,93
754,42	1450,37
754,60	1477,00
754,78	1558,09
754,96	1441,16
755,14	1462,86
755,32	1511,20
755,51	1428,25
755,69	1486,83
755,87	1462,25
756,05	1424,36
756,23	1488,87
756,41	1471,06
756,60	1488,67
756,78	1469,01
756,96	1439,31
757,14	1470,24
757,32	1451,40
757,50	1501,98
757,68	1464,09
757,87	1457,54
758,05	1481,09
758,23	1458,15
758,41	1555,64
758,59	1538,84
758,77	1517,14
758,95	1530,04
759,14	1477,61
759,32	1543,14
759,50	1453,44
759,68	1455,08
759,86	1476,79
760,04	1458,15
760,22	1469,21
760,40	1625,27
760,59	1486,83
760,77	1520,00
760,95	1441,77
761,13	1451,60
761,31	1530,65
761,49	1487,44
761,67	1531,68
761,85	1460,61
762,03	1475,77
762,22	1518,77
762,40	1514,27
762,58	1461,43
762,76	1477,61
762,94	1489,08
763,12	1494,40
763,30	1543,14
763,48	1484,98
763,66	1468,19
763,84	1446,89
764,02	1457,54
764,21	1447,91
764,39	1576,12
764,57	1462,04
764,75	1467,37
764,93	1504,03
765,11	1474,95
765,29	1489,90
765,47	1488,46
765,65	1437,88
765,83	1465,53
766,01	1465,53
766,19	1503,00
766,37	1567,31
766,56	1490,92
766,74	1476,79
766,92	1472,08
767,10	1445,05
767,28	1493,79
767,46	1491,13
767,64	1449,76
767,82	1476,79
768,00	1467,37
768,18	1456,11
768,36	1525,53
768,54	1525,74
768,72	1516,32
768,90	1436,24
769,08	1461,23
769,26	1472,08
769,44	1481,09
769,62	1460,41
769,80	1538,43
769,98	1486,42
770,16	1450,99
770,34	1477,00
770,52	1432,35
770,71	1489,90
770,89	1460,61
771,07	1552,57
771,25	1472,69
771,43	1513,45
771,61	1511,40
771,79	1468,39
771,97	1463,07
772,15	1478,63
772,33	1488,05
772,51	1528,60
772,69	1455,49
772,87	1502,59
773,05	1479,25
773,23	1513,86
773,41	1503,21
773,59	1510,17
773,77	1475,56
773,95	1522,26
774,13	1493,17
774,31	1532,50
774,49	1504,44
774,67	1449,35
774,85	1473,72
775,03	1473,51
775,21	1476,79
775,39	1453,65
775,57	1455,08
775,75	1512,63
775,93	1447,30
776,10	1462,66
776,28	1516,11
776,46	1446,28
776,64	1456,92
776,82	1455,08
777,00	2417,63
777,18	1414,94
777,36	1493,79
777,54	1445,46
777,72	1439,11
777,90	1506,69
778,08	1454,06
778,26	1445,05
778,44	1453,03
778,62	1451,81
778,80	1545,60
778,98	1509,35
779,16	1468,80
779,34	1557,48
779,52	1461,64
779,70	1529,42
779,88	1457,74
780,05	1453,44
780,23	1444,84
780,41	1465,53
780,59	1462,66
780,77	1479,66
780,95	1473,31
781,13	1518,36
781,31	1462,04
781,49	1496,25
781,67	1499,93
781,85	1468,80
782,03	1503,82
782,21	1476,18
782,39	1485,19
782,56	1504,44
782,74	1493,58
782,92	1466,96
783,10	1569,56
783,28	1449,76
783,46	1422,52
783,64	1520,41
783,82	1481,50
784,00	1531,27
784,18	1427,64
784,35	1448,53
784,53	1469,21
784,71	1468,39
784,89	1468,39
785,07	1485,60
785,25	1494,20
785,43	1514,47
785,61	1442,18
785,79	1477,61
785,96	1527,99
786,14	1493,17
786,32	1501,16
786,50	1510,58
786,68	1413,30
786,86	1450,17
787,04	1491,95
787,22	1463,48
787,39	1473,10
787,57	1461,23
787,75	1477,40
787,93	1505,26
788,11	1421,29
788,29	1465,94
788,47	1491,13
788,65	1466,14
788,82	1486,42
789,00	1450,58
789,18	1493,58
789,36	1465,73
789,54	1457,74
789,72	1461,23
789,89	1458,15
790,07	1508,94
790,25	1507,30
790,43	1506,28
790,61	1518,16
790,79	1481,71
790,96	1467,16
791,14	1545,40
791,32	1406,54
791,50	1506,28
791,68	1534,13
791,86	1488,87
792,03	1475,56
792,21	1480,07
792,39	1441,57
792,57	1455,70
792,75	1430,92
792,93	1480,89
793,10	1482,32
793,28	1472,90
793,46	1435,42
793,64	1490,72
793,82	1547,85
793,99	1525,53
794,17	1447,71
794,35	1470,85
794,53	1504,44
794,71	1424,77
794,88	1453,85
795,06	1473,31
795,24	1465,53
795,42	1475,77
795,60	1497,88
795,77	1454,67
795,95	1491,13
796,13	1458,56
796,31	1482,32
796,49	1557,28
796,66	1468,19
796,84	1458,97
797,02	1524,71
797,20	1486,62
797,37	1465,94
797,55	1439,72
797,73	1455,08
797,91	1440,13
798,08	1515,09
798,26	1519,39
798,44	1448,12
798,62	1438,08
798,80	1443,00
798,97	1441,36
799,15	1476,59
799,33	1533,31
799,51	1539,05
799,68	1458,36
799,86	1500,75
800,04	1471,47
800,22	1480,89
800,39	1466,96
800,57	1543,96
800,75	1493,17
800,93	1522,87
801,10	1496,86
801,28	1549,29
801,46	1473,72
801,63	1512,42
801,81	1502,39
801,99	1453,03
802,17	1458,77
802,34	1560,96
802,52	1445,87
802,70	1545,81
802,88	1511,81
803,05	1548,88
803,23	1442,79
803,41	1472,49
803,58	1506,28
803,76	1493,38
803,94	1528,19
804,12	1488,67
804,29	1433,17
804,47	1516,32
804,65	1503,21
804,82	1494,81
805,00	1474,33
805,18	1468,39
805,35	1459,59
805,53	1494,20
805,71	1509,35
805,89	1522,26
806,06	1532,09
806,24	1443,00
806,42	1463,48
806,59	1454,26
806,77	1530,45
806,95	1503,82
807,12	1486,83
807,30	1535,36
807,48	1414,74
807,65	1433,17
807,83	1487,23
808,01	1479,45
808,18	1473,72
808,36	1506,90
808,54	1423,75
808,71	1482,32
808,89	1498,50
809,07	1517,14
809,24	1512,42
809,42	1554,20
809,60	1422,11
809,77	1515,50
809,95	1530,04
810,13	1461,64
810,30	1461,64
810,48	1540,69
810,66	1467,16
810,83	1498,91
811,01	1507,92
811,18	1466,35
811,36	1407,98
811,54	1470,65
811,71	1492,15
811,89	1518,36
812,07	1465,32
812,24	1549,29
812,42	1458,77
812,59	1509,56
812,77	1484,57
812,95	1498,70
813,12	1500,34
813,30	1477,81
813,48	1477,81
813,65	1498,70
813,83	1515,09
814,00	1519,59
814,18	1517,95
814,36	1442,38
814,53	1494,40
814,71	1471,26
814,88	1505,26
815,06	1461,23
815,24	1532,50
815,41	1449,14
815,59	1484,37
815,76	1465,53
815,94	1542,53
816,12	1461,02
816,29	1516,32
816,47	1496,45
816,64	1561,37
816,82	1436,04
817,00	1556,05
817,17	1476,59
817,35	1561,78
817,52	1483,14
817,70	1507,51
817,87	1522,26
818,05	1464,71
818,23	1489,69
818,40	1538,84
818,58	1497,68
818,75	1466,76
818,93	1473,72
819,10	1502,80
819,28	1475,15
819,46	1487,44
819,63	1452,01
819,81	1519,80
819,98	1419,86
820,16	1533,31
820,33	1435,83
820,51	1565,88
820,68	1494,40
820,86	1495,22
821,03	1556,66
821,21	1518,57
821,39	1571,61
821,56	1483,96
821,74	1447,71
821,91	1476,79
822,09	1496,04
822,26	1464,09
822,44	1458,97
822,61	1466,14
822,79	1512,83
822,96	1500,55
823,14	1495,02
823,31	1443,41
823,49	1542,12
823,66	1478,63
823,84	1484,98
824,01	1491,13
824,19	1433,37
824,36	1483,75
824,54	1485,80
824,71	1527,78
824,89	1509,76
825,06	1548,88
825,24	1488,67
825,41	1523,48
825,59	1492,56
825,76	1517,54
825,94	1481,30
826,11	1511,81
826,29	1463,48
826,46	1501,57
826,64	1550,11
826,81	1514,68
826,99	1498,50
827,16	1474,95
827,34	1471,06
827,51	1495,84
827,69	1576,94
827,86	1508,12
828,04	1503,82
828,21	1495,63
828,39	1518,98
828,56	1476,79
828,74	1517,54
828,91	1473,72
829,09	1599,46
829,26	1461,23
829,43	1533,31
829,61	1495,22
829,78	1469,83
829,96	1501,78
830,13	1455,90
830,31	1495,02
830,48	1513,24
830,66	1467,37
830,83	1466,35
831,01	1485,80
831,18	1485,60
831,35	1469,01
831,53	1515,91
831,70	1501,98
831,88	1578,57
832,05	1497,07
832,23	1481,50
832,40	1515,09
832,57	1533,11
832,75	1479,25
832,92	1514,06
833,10	1569,15
833,27	1498,09
833,45	1464,30
833,62	1474,54
833,79	1488,87
833,97	1447,30
834,14	1494,61
834,32	1513,04
834,49	1486,21
834,66	1464,71
834,84	1447,50
835,01	1507,51
835,19	1435,83
835,36	1465,12
835,53	1571,00
835,71	1492,15
835,88	1512,63
836,06	1509,35
836,23	1588,81
836,40	1456,11
836,58	1452,83
836,75	1486,42
836,93	1471,67
837,10	1527,58
837,27	1501,98
837,45	1486,01
837,62	1437,88
837,79	1457,95
837,97	1514,27
838,14	1451,60
838,32	1492,97
838,49	1460,82
838,66	1472,28
838,84	1530,86
839,01	1519,18
839,18	1500,34
839,36	1464,09
839,53	1480,07
839,70	1520,41
839,88	1484,78
840,05	1523,69
840,23	1467,57
840,40	1456,72
840,57	1487,85
840,75	1483,75
840,92	1552,77
841,09	1497,68
841,27	1519,39
841,44	1499,32
841,61	1515,09
841,79	1485,39
841,96	1492,76
842,13	1454,88
842,31	1496,04
842,48	1482,32
842,65	1460,82
842,83	1504,44
843,00	1490,10
843,17	1448,53
843,35	1522,66
843,52	1448,12
843,69	1506,28
843,86	1452,21
844,04	1479,86
844,21	1479,86
844,38	1524,10
844,56	1497,07
844,73	1501,57
844,90	1501,57
845,08	1480,07
845,25	1487,64
845,42	1497,07
845,60	1520,41
845,77	1479,66
845,94	1454,26
846,11	1511,61
846,29	1559,94
846,46	1491,74
846,63	1474,74
846,81	1521,03
846,98	1493,58
847,15	1474,13
847,32	1484,98
847,50	1475,15
847,67	1464,91
847,84	1497,47
848,01	1507,10
848,19	1504,44
848,36	1486,01
848,53	1469,01
848,71	1543,76
848,88	1463,68
849,05	1445,05
849,22	1491,54
849,40	1476,18
849,57	1530,86
849,74	1502,39
849,91	1483,96
850,09	1445,46
850,26	1463,89
850,43	1457,33
850,60	1485,39
850,78	1501,16
850,95	1482,73
851,12	1469,83
851,29	1507,10
851,47	1540,48
851,64	1462,45
851,81	1493,17
851,98	1483,96
852,15	1556,87
852,33	1433,37
852,50	1452,83
852,67	1507,30
852,84	1487,64
853,02	1524,30
853,19	1531,06
853,36	1466,14
853,53	1434,19
853,70	1571,41
853,88	1523,69
854,05	1524,30
854,22	1464,09
854,39	1523,07
854,56	1507,10
854,74	1439,72
854,91	1502,59
855,08	1428,46
855,25	1513,24
855,42	1459,18
855,60	1481,30
855,77	1511,20
855,94	1559,53
856,11	1460,61
856,28	1496,45
856,46	1550,52
856,63	1486,01
856,80	1487,64
856,97	1514,68
857,14	1515,29
857,31	1452,21
857,49	1469,21
857,66	1500,75
857,83	1477,00
858,00	1480,89
858,17	1485,19
858,34	1493,79
858,52	1454,47
858,69	1504,64
858,86	1489,28
859,03	1477,61
859,20	1505,26
859,37	1473,31
859,55	1468,60
859,72	1476,79
859,89	1480,07
860,06	1541,71
860,23	1526,76
860,40	1471,47
860,57	1505,46
860,75	1421,70
860,92	1520,21
861,09	1504,03
861,26	1547,24
861,43	1514,88
861,60	1486,62
861,77	1469,21
861,95	1468,80
862,12	1489,90
862,29	1473,10
862,46	1528,19
862,63	1551,75
862,80	1531,68
862,97	1557,48
863,14	1445,87
863,31	1532,90
863,49	1491,33
863,66	1487,64
863,83	1508,12
864,00	1550,52
864,17	1459,18
864,34	1497,07
864,51	1450,99
864,68	1493,38
864,85	1473,10
865,02	1496,66
865,20	1502,80
865,37	1475,97
865,54	1482,11
865,71	1511,20
865,88	1459,18
866,05	1444,64
866,22	1472,49
866,39	1495,02
866,56	1470,24
866,73	1494,20
866,90	1558,09
867,07	1534,13
867,25	1458,77
867,42	1557,28
867,59	1466,76
867,76	1528,19
867,93	1455,70
868,10	1499,73
868,27	1444,64
868,44	1518,57
868,61	1486,01
868,78	1500,14
868,95	1488,05
869,12	1512,42
869,29	1504,03
869,46	1510,38
869,63	1484,16
869,80	1466,96
869,97	1518,77
870,14	1472,08
870,32	1516,52
870,49	1492,97
870,66	1551,34
870,83	1512,42
871,00	1476,79
871,17	1490,10
871,34	1498,09
871,51	1509,56
871,68	1462,04
871,85	1523,07
872,02	1557,28
872,19	1484,37
872,36	1441,97
872,53	1509,15
872,70	1497,07
872,87	1465,32
873,04	1445,46
873,21	1441,77
873,38	1458,56
873,55	1535,57
873,72	1512,22
873,89	1485,80
874,06	1449,96
874,23	1422,72
874,40	1444,84
874,57	1487,64
874,74	1541,71
874,91	1422,72
875,08	1462,45
875,25	1496,86
875,42	1513,86
875,59	1488,46
875,76	1483,55
875,93	1481,91
876,10	1550,72
876,27	1468,39
876,44	1580,01
876,61	1523,48
876,78	1493,58
876,95	1514,27
877,12	1486,42
877,29	1496,04
877,46	1500,55
877,62	1484,16
877,79	1464,09
877,96	1493,58
878,13	1435,83
878,30	1481,71
878,47	1538,64
878,64	1516,52
878,81	1512,22
878,98	1486,42
879,15	1540,69
879,32	1521,23
879,49	1505,87
879,66	1512,42
879,83	1490,10
880,00	1563,21
880,17	1438,70
880,34	1501,57
880,51	1499,93
880,67	1549,70
880,84	1423,75
881,01	1483,96
881,18	1567,31
881,35	1470,24
881,52	1567,72
881,69	1464,09
881,86	1574,27
882,03	1489,49
882,20	1525,74
882,37	1500,34
882,54	1556,46
882,70	1499,73
882,87	1456,31
883,04	1521,85
883,21	1493,38
883,38	1442,79
883,55	1488,87
883,72	1463,07
883,89	1466,35
884,06	1464,71
884,23	1429,07
884,39	1434,60
884,56	1526,97
884,73	1520,00
884,90	1489,08
885,07	1560,96
885,24	1460,00
885,41	1544,17
885,58	1456,31
885,74	1437,88
885,91	1521,23
886,08	1526,76
886,25	1471,26
886,42	1492,76
886,59	1523,89
886,76	1451,60
886,93	1429,07
887,09	1551,13
887,26	1626,50
887,43	1489,28
887,60	1504,44
887,77	1497,68
887,94	1522,66
888,10	1632,85
888,27	1555,64
888,44	1515,09
888,61	1444,64
888,78	1459,38
888,95	1533,11
889,12	1441,16
889,28	1541,51
889,45	1493,58
889,62	1455,29
889,79	1499,11
889,96	1506,49
890,13	1469,62
890,29	1481,30
890,46	1551,75
890,63	1495,84
890,80	1504,85
890,97	1493,79
891,13	1454,06
891,30	1536,18
891,47	1560,14
891,64	1474,95
891,81	1466,76
891,98	1479,04
892,14	1510,17
892,31	1474,13
892,48	1483,75
892,65	1497,88
892,82	1496,04
892,98	1437,67
893,15	1501,98
893,32	1496,04
>>>>>End Processed Spectral Data<<<<<
