SpectraSuite Datei
++++++++++++++++++++++++++++++++++++
Datum: Thu Mar 09 10:18:57 CET 2017
Benutzer: Admin
Dark-Spektrum vorhanden: Nein
Referenz-Spektrum vorhanden: Nein
Zahl der probierten Teilspektren: 1
Spektrometer: USB4F05832
Integrationszeit (usec): 100000 (USB4F05832)
Spektren Durchschnitt berechnet: 10 (USB4F05832)
Boxcar Glättung: 0 (USB4F05832)
Dunkelstromkorrektur: Nein (USB4F05832)
Puls/Lampe aktiviert: Nein (USB4F05832)
Correct for Detector Non-linearity: Nein (USB4F05832)
Streulichtkorrektur: Nein (USB4F05832)
Anzahl Pixel in verarbeitetem Spektrum: 3648
>>>>>Begin Processed Spectral Data<<<<<
177,54	1330,57
177,75	1330,57
177,97	1330,57
178,19	1324,42
178,41	1315,62
178,63	1506,69
178,85	1408,18
179,07	1437,67
179,29	1446,07
179,51	1388,11
179,73	1486,01
179,95	1470,03
180,17	1453,03
180,39	1518,77
180,61	1480,27
180,83	1527,38
181,05	1435,63
181,27	1472,49
181,49	1459,18
181,71	1470,65
181,92	1584,72
182,14	1501,98
182,36	1464,50
182,58	1538,64
182,80	1471,26
183,02	1587,59
183,24	1526,56
183,46	1514,06
183,68	1457,13
183,90	1504,64
184,12	1455,29
184,34	1515,70
184,56	1468,80
184,78	1436,04
185,00	1471,26
185,21	1539,87
185,43	1443,61
185,65	1490,10
185,87	1456,31
186,09	1538,64
186,31	1465,12
186,53	1499,73
186,75	1518,36
186,97	1525,94
187,19	1572,23
187,41	1440,75
187,63	1547,45
187,84	1454,26
188,06	1517,54
188,28	1469,01
188,50	1518,57
188,72	1543,76
188,94	1519,80
189,16	1447,30
189,38	1466,55
189,60	1483,75
189,82	1467,78
190,03	1514,27
190,25	1489,69
190,47	1546,83
190,69	1493,79
190,91	1448,53
191,13	1469,83
191,35	1566,49
191,57	1465,94
191,79	1485,80
192,01	1487,85
192,22	1561,37
192,44	1452,42
192,66	1512,83
192,88	1494,61
193,10	1488,26
193,32	1470,85
193,54	1558,09
193,76	1543,76
193,98	1498,29
194,19	1529,42
194,41	1487,23
194,63	1463,27
194,85	1492,56
195,07	1556,46
195,29	1443,20
195,51	1532,29
195,73	1460,20
195,94	1488,87
196,16	1499,52
196,38	1566,70
196,60	1452,83
196,82	1440,13
197,04	1477,81
197,26	1463,89
197,48	1480,48
197,69	1500,75
197,91	1450,37
198,13	1480,89
198,35	1513,24
198,57	1480,07
198,79	1529,01
199,01	1516,73
199,22	1486,42
199,44	1564,24
199,66	1485,80
199,88	1507,92
200,10	1513,45
200,32	1514,27
200,54	1527,58
200,75	1546,42
200,97	1459,38
201,19	1539,25
201,41	1534,75
201,63	1476,38
201,85	1465,53
202,06	1520,00
202,28	1504,44
202,50	1505,67
202,72	1431,94
202,94	1454,06
203,16	1486,21
203,38	1502,19
203,59	1493,99
203,81	1538,43
204,03	1433,37
204,25	1496,04
204,47	1537,61
204,69	1533,72
204,90	1464,91
205,12	1499,32
205,34	1494,20
205,56	1494,81
205,78	1450,58
206,00	1560,35
206,21	1526,56
206,43	1469,62
206,65	1509,56
206,87	1483,55
207,09	1506,49
207,30	1475,77
207,52	1512,22
207,74	1490,72
207,96	1459,59
208,18	1499,32
208,40	1477,20
208,61	1484,57
208,83	1470,85
209,05	1441,97
209,27	1437,88
209,49	1529,01
209,70	1534,34
209,92	1515,29
210,14	1478,43
210,36	1495,02
210,58	1506,69
210,79	1510,38
211,01	1435,01
211,23	1522,87
211,45	1537,00
211,67	1498,09
211,88	1433,78
212,10	1523,89
212,32	1480,68
212,54	1479,45
212,76	1470,44
212,97	1444,43
213,19	1446,89
213,41	1517,14
213,63	1476,18
213,85	1462,25
214,06	1428,87
214,28	1551,75
214,50	1475,56
214,72	1516,52
214,94	1504,23
215,15	1489,90
215,37	1475,56
215,59	1494,81
215,81	1525,33
216,02	1488,46
216,24	1523,89
216,46	1458,56
216,68	1469,21
216,90	1499,52
217,11	1526,35
217,33	1469,62
217,55	1556,46
217,77	1525,74
217,98	1537,41
218,20	1507,92
218,42	1543,14
218,64	1498,29
218,85	1578,98
219,07	1507,51
219,29	1490,92
219,51	1538,64
219,73	1483,34
219,94	1495,22
220,16	1544,99
220,38	1531,06
220,60	1482,32
220,81	1448,73
221,03	1435,22
221,25	1518,98
221,47	1423,34
221,68	1471,88
221,90	1500,55
222,12	1488,87
222,34	1492,56
222,55	1526,56
222,77	1544,37
222,99	1512,22
223,21	1502,80
223,42	1553,79
223,64	1519,59
223,86	1484,78
224,08	1508,94
224,29	1542,33
224,51	1473,10
224,73	1496,04
224,94	1509,35
225,16	1479,25
225,38	1483,75
225,60	1511,61
225,81	1478,84
226,03	1457,74
226,25	1453,24
226,47	1491,54
226,68	1521,85
226,90	1522,66
227,12	1506,08
227,33	1516,11
227,55	1477,61
227,77	1450,99
227,99	1552,77
228,20	1486,42
228,42	1498,70
228,64	1518,98
228,86	1490,72
229,07	1491,54
229,29	1443,00
229,51	1412,07
229,72	1562,60
229,94	1492,76
230,16	1498,09
230,38	1487,85
230,59	1482,11
230,81	1526,35
231,03	1500,96
231,24	1477,40
231,46	1489,69
231,68	1471,67
231,89	1503,82
232,11	1446,89
232,33	1549,29
232,55	1494,61
232,76	1531,68
232,98	1506,90
233,20	1462,66
233,41	1463,48
233,63	1490,10
233,85	1483,75
234,06	1475,77
234,28	1532,70
234,50	1443,82
234,71	1522,87
234,93	1564,03
235,15	1500,75
235,37	1442,18
235,58	1500,75
235,80	1453,03
236,02	1465,12
236,23	1514,06
236,45	1478,02
236,67	1542,73
236,88	1487,03
237,10	1525,12
237,32	1534,13
237,53	1507,92
237,75	1481,30
237,97	1436,65
238,18	1483,34
238,40	1513,65
238,62	1466,14
238,83	1490,72
239,05	1464,91
239,27	1482,73
239,48	1438,49
239,70	1480,48
239,92	1559,12
240,13	1531,68
240,35	1470,24
240,57	1504,44
240,78	1515,29
241,00	1467,37
241,22	1516,32
241,43	1554,41
241,65	1503,41
241,87	1568,95
242,08	1604,17
242,30	1471,06
242,52	1498,29
242,73	1548,06
242,95	1465,94
243,16	1512,22
243,38	1574,27
243,60	1512,22
243,81	1534,34
244,03	1544,78
244,25	1459,59
244,46	1495,02
244,68	1466,96
244,90	1509,15
245,11	1439,11
245,33	1470,44
245,55	1502,59
245,76	1487,64
245,98	1455,70
246,19	1568,13
246,41	1553,79
246,63	1535,77
246,84	1569,77
247,06	1507,71
247,28	1509,35
247,49	1477,20
247,71	1450,99
247,92	1520,82
248,14	1533,11
248,36	1520,82
248,57	1534,75
248,79	1551,54
249,01	1492,56
249,22	1539,66
249,44	1511,40
249,65	1479,04
249,87	1498,29
250,09	1535,57
250,30	1526,35
250,52	1517,34
250,73	1543,55
250,95	1448,94
251,17	1513,86
251,38	1492,97
251,60	1481,09
251,81	1568,74
252,03	1582,26
252,25	1467,78
252,46	1484,57
252,68	1518,77
252,89	1503,41
253,11	1515,50
253,33	1507,10
253,54	1455,49
253,76	1510,99
253,97	1519,18
254,19	1546,22
254,41	1441,57
254,62	1542,94
254,84	1534,54
255,05	1503,00
255,27	1514,06
255,49	1532,90
255,70	1534,13
255,92	1482,11
256,13	1488,05
256,35	1516,73
256,56	1536,80
256,78	1513,45
257,00	1532,70
257,21	1494,20
257,43	1471,06
257,64	1523,28
257,86	1536,59
258,08	1504,85
258,29	1579,39
258,51	1491,74
258,72	1535,36
258,94	1563,83
259,15	1511,40
259,37	1519,59
259,59	1450,17
259,80	1544,99
260,02	1497,47
260,23	1522,66
260,45	1476,18
260,66	1522,87
260,88	1493,17
261,09	1504,64
261,31	1506,90
261,53	1528,81
261,74	1546,22
261,96	1443,41
262,17	1473,72
262,39	1519,80
262,60	1441,97
262,82	1517,75
263,03	1495,22
263,25	1522,26
263,46	1481,91
263,68	1516,73
263,90	1493,58
264,11	1475,36
264,33	1527,58
264,54	1532,29
264,76	1507,30
264,97	1547,85
265,19	1477,00
265,40	1546,01
265,62	1479,86
265,83	1539,25
266,05	1501,16
266,26	1483,14
266,48	1570,59
266,70	1571,00
266,91	1446,69
267,13	1516,52
267,34	1484,57
267,56	1511,20
267,77	1490,10
267,99	1476,59
268,20	1557,89
268,42	1518,57
268,63	1456,11
268,85	1627,52
269,06	1536,80
269,28	1521,85
269,49	1520,41
269,71	1529,01
269,92	1493,58
270,14	1470,03
270,35	1485,80
270,57	1527,78
270,78	1495,43
271,00	1501,57
271,21	1612,98
271,43	1471,67
271,64	1472,28
271,86	1530,65
272,07	1457,54
272,29	1580,83
272,50	1487,44
272,72	1563,62
272,93	1541,92
273,15	1565,26
273,36	1539,05
273,58	1497,27
273,79	1506,49
274,01	1508,53
274,22	1458,77
274,44	1506,28
274,65	1511,81
274,87	1538,43
275,08	1511,20
275,30	1532,70
275,51	1613,80
275,73	1558,09
275,94	1488,46
276,16	1481,71
276,37	1488,87
276,59	1517,95
276,80	1492,15
277,02	1515,91
277,23	1467,98
277,45	1524,10
277,66	1441,97
277,88	1522,26
278,09	1577,14
278,30	1545,60
278,52	1443,41
278,73	1609,29
278,95	1509,56
279,16	1582,47
279,38	1540,89
279,59	1510,38
279,81	1492,56
280,02	1524,92
280,24	1481,71
280,45	1494,61
280,67	1564,85
280,88	1536,39
281,09	1475,97
281,31	1470,85
281,52	1499,11
281,74	1582,67
281,95	1503,62
282,17	1495,43
282,38	1562,19
282,60	1537,21
282,81	1543,55
283,02	1473,51
283,24	1498,50
283,45	1568,74
283,67	1471,67
283,88	1541,10
284,10	1501,57
284,31	1529,83
284,53	1497,07
284,74	1511,61
284,95	1509,56
285,17	1490,72
285,38	1459,59
285,60	1490,72
285,81	1461,84
286,03	1524,30
286,24	1544,99
286,45	1570,59
286,67	1493,58
286,88	1533,31
287,10	1547,85
287,31	1459,59
287,53	1522,26
287,74	1519,39
287,95	1452,21
288,17	1533,72
288,38	1535,98
288,60	1467,98
288,81	1501,37
289,02	1489,49
289,24	1571,20
289,45	1494,61
289,67	1535,57
289,88	1495,22
290,10	1512,83
290,31	1519,80
290,52	1489,49
290,74	1494,40
290,95	1512,83
291,17	1546,22
291,38	1481,71
291,59	1486,83
291,81	1498,91
292,02	1513,65
292,24	1540,89
292,45	1535,57
292,66	1552,36
292,88	1547,04
293,09	1511,81
293,31	1541,71
293,52	1509,15
293,73	1457,74
293,95	1523,28
294,16	1546,01
294,37	1526,76
294,59	1553,18
294,80	1571,00
295,02	1527,78
295,23	1450,17
295,44	1550,52
295,66	1501,37
295,87	1510,38
296,09	1488,05
296,30	1514,27
296,51	1492,15
296,73	1516,73
296,94	1476,18
297,15	1457,95
297,37	1490,72
297,58	1505,67
297,79	1498,50
298,01	1530,45
298,22	1572,02
298,44	1480,68
298,65	1496,04
298,86	1542,94
299,08	1491,74
299,29	1497,68
299,50	1503,21
299,72	1479,04
299,93	1543,96
300,14	1532,29
300,36	1446,69
300,57	1460,41
300,79	1489,08
301,00	1537,82
301,21	1447,30
301,43	1490,10
301,64	1488,26
301,85	1496,25
302,07	1564,44
302,28	1481,91
302,49	1550,52
302,71	1489,90
302,92	1547,65
303,13	1568,54
303,35	1501,78
303,56	1532,90
303,77	1439,93
303,99	1530,86
304,20	1506,28
304,41	1476,18
304,63	1512,83
304,84	1558,91
305,05	1521,64
305,27	1552,36
305,48	1535,77
305,69	1531,06
305,91	1528,81
306,12	1507,92
306,33	1532,70
306,55	1479,45
306,76	1497,47
306,97	1493,58
307,19	1502,80
307,40	1542,94
307,61	1551,95
307,82	1501,37
308,04	1546,01
308,25	1536,80
308,46	1525,53
308,68	1501,57
308,89	1554,61
309,10	1482,32
309,32	1493,99
309,53	1501,16
309,74	1537,41
309,96	1491,95
310,17	1496,25
310,38	1483,14
310,59	1521,85
310,81	1519,18
311,02	1522,05
311,23	1524,30
311,45	1510,17
311,66	1496,25
311,87	1494,20
312,09	1541,71
312,30	1504,03
312,51	1556,66
312,72	1488,46
312,94	1535,57
313,15	1495,84
313,36	1522,05
313,58	1492,76
313,79	1566,08
314,00	1508,33
314,21	1460,20
314,43	1530,04
314,64	1507,92
314,85	1465,32
315,06	1461,64
315,28	1574,48
315,49	1532,90
315,70	1520,82
315,92	1558,09
316,13	1595,78
316,34	1554,41
316,55	1516,32
316,77	1480,68
316,98	1576,94
317,19	1471,47
317,40	1434,60
317,62	1466,96
317,83	1542,33
318,04	1518,36
318,25	1492,76
318,47	1491,95
318,68	1515,91
318,89	1553,59
319,11	1504,44
319,32	1511,20
319,53	1572,02
319,74	1531,47
319,96	1523,69
320,17	1492,15
320,38	1474,13
320,59	1558,71
320,81	1560,96
321,02	1519,18
321,23	1502,80
321,44	1548,06
321,65	1507,51
321,87	1535,77
322,08	1546,22
322,29	1493,58
322,50	1495,22
322,72	1501,57
322,93	1500,96
323,14	1468,80
323,35	1481,09
323,57	1579,39
323,78	1515,09
323,99	1502,80
324,20	1563,83
324,41	1464,50
324,63	1534,13
324,84	1504,44
325,05	1505,46
325,26	1552,16
325,48	1514,06
325,69	1523,28
325,90	1511,40
326,11	1524,30
326,32	1514,47
326,54	1528,81
326,75	1503,00
326,96	1504,03
327,17	1530,45
327,39	1566,90
327,60	1521,03
327,81	1501,57
328,02	1493,58
328,23	1508,33
328,45	1540,89
328,66	1496,04
328,87	1511,81
329,08	1554,41
329,29	1520,62
329,51	1510,79
329,72	1492,97
329,93	1513,45
330,14	1468,39
330,35	1524,30
330,56	1498,91
330,78	1505,87
330,99	1502,80
331,20	1554,61
331,41	1551,34
331,62	1471,47
331,84	1477,20
332,05	1500,75
332,26	1536,39
332,47	1557,07
332,68	1482,73
332,90	1500,14
333,11	1471,88
333,32	1620,35
333,53	1533,93
333,74	1445,46
333,95	1560,35
334,17	1517,34
334,38	1500,14
334,59	1481,91
334,80	1483,14
335,01	1563,21
335,22	1514,68
335,44	1527,78
335,65	1489,69
335,86	1561,37
336,07	1516,52
336,28	1489,08
336,49	1496,25
336,71	1458,36
336,92	1562,80
337,13	1484,98
337,34	1473,51
337,55	1576,94
337,76	1513,24
337,97	1522,46
338,19	1522,05
338,40	1471,47
338,61	1544,78
338,82	1515,09
339,03	1519,80
339,24	1464,30
339,45	1459,79
339,67	1523,28
339,88	1532,70
340,09	1510,38
340,30	1477,00
340,51	1593,73
340,72	1509,15
340,93	1450,99
341,15	1522,87
341,36	1584,51
341,57	1496,45
341,78	1475,77
341,99	1522,87
342,20	1564,03
342,41	1472,28
342,62	1588,20
342,84	1429,48
343,05	1556,25
343,26	1483,55
343,47	1553,18
343,68	1472,49
343,89	1502,80
344,10	1515,29
344,31	1500,34
344,53	1422,72
344,74	1502,39
344,95	1486,21
345,16	1496,66
345,37	1537,61
345,58	1511,61
345,79	1449,35
346,00	1498,29
346,21	1484,78
346,42	1497,07
346,64	1481,71
346,85	1558,30
347,06	1515,91
347,27	1475,77
347,48	1579,39
347,69	1552,16
347,90	1507,30
348,11	1527,78
348,32	1470,03
348,53	1492,35
348,75	1463,07
348,96	1503,41
349,17	1456,11
349,38	1508,53
349,59	1496,25
349,80	1474,74
350,01	1574,68
350,22	1562,60
350,43	1502,59
350,64	1522,66
350,85	1573,86
351,06	1473,92
351,28	1509,76
351,49	1466,14
351,70	1501,37
351,91	1492,15
352,12	1503,21
352,33	1505,05
352,54	1474,74
352,75	1494,61
352,96	1479,04
353,17	1498,09
353,38	1519,80
353,59	1553,79
353,80	1606,84
354,01	1540,07
354,22	1514,27
354,44	1489,08
354,65	1560,35
354,86	1490,51
355,07	1461,02
355,28	1464,91
355,49	1485,60
355,70	1497,88
355,91	1517,75
356,12	1461,84
356,33	1471,88
356,54	1530,65
356,75	1530,24
356,96	1495,22
357,17	1533,93
357,38	1501,78
357,59	1501,78
357,80	1554,00
358,01	1516,32
358,22	1544,78
358,43	1524,71
358,64	1534,54
358,85	1477,00
359,07	1593,11
359,28	1461,84
359,49	1496,04
359,70	1465,73
359,91	1506,28
360,12	1475,15
360,33	1551,34
360,54	1467,16
360,75	1481,30
360,96	1467,16
361,17	1452,62
361,38	1474,54
361,59	1592,09
361,80	1472,49
362,01	1516,73
362,22	1488,87
362,43	1477,20
362,64	1487,85
362,85	1507,30
363,06	1605,40
363,27	1516,73
363,48	1562,19
363,69	1575,91
363,90	1466,14
364,11	1511,61
364,32	1492,56
364,53	1529,63
364,74	1527,99
364,95	1519,39
365,16	1494,40
365,37	1578,78
365,58	1483,34
365,79	1492,35
366,00	1538,43
366,21	1469,42
366,42	1525,94
366,63	1554,41
366,84	1489,49
367,05	1515,09
367,26	1520,21
367,47	1559,53
367,68	1474,13
367,89	1510,38
368,10	1500,55
368,31	1488,46
368,52	1527,17
368,73	1527,58
368,94	1493,79
369,15	1509,15
369,36	1499,11
369,57	1497,88
369,78	1452,83
369,99	1503,62
370,20	1522,66
370,40	1453,24
370,61	1484,78
370,82	1471,26
371,03	1487,03
371,24	1533,72
371,45	1523,89
371,66	1419,24
371,87	1517,75
372,08	1525,53
372,29	1500,14
372,50	1527,38
372,71	1506,90
372,92	1535,16
373,13	1504,03
373,34	1472,08
373,55	1488,67
373,76	1538,23
373,97	1504,85
374,18	1488,46
374,39	1506,90
374,60	1575,71
374,81	1513,04
375,01	1487,85
375,22	1522,26
375,43	1476,18
375,64	1489,69
375,85	1472,49
376,06	1496,25
376,27	1505,26
376,48	1514,47
376,69	1547,45
376,90	1501,16
377,11	1522,66
377,32	1503,21
377,53	1531,47
377,74	1511,81
377,94	1488,67
378,15	1510,79
378,36	1543,14
378,57	1439,72
378,78	1603,97
378,99	1457,54
379,20	1612,16
379,41	1493,17
379,62	1492,56
379,83	1444,84
380,04	1521,03
380,25	1512,83
380,45	1533,11
380,66	1524,71
380,87	1504,23
381,08	1503,62
381,29	1499,93
381,50	1527,38
381,71	1513,86
381,92	1504,44
382,13	1478,22
382,34	1507,92
382,55	1499,32
382,75	1555,64
382,96	1555,23
383,17	1455,70
383,38	1567,72
383,59	1573,86
383,80	1454,47
384,01	1497,68
384,22	1567,11
384,43	1554,20
384,63	1529,01
384,84	1483,34
385,05	1556,87
385,26	1514,27
385,47	1535,16
385,68	1499,52
385,89	1558,50
386,10	1481,30
386,30	1499,93
386,51	1483,14
386,72	1483,34
386,93	1450,58
387,14	1504,64
387,35	1530,86
387,56	1563,21
387,77	1453,44
387,97	1489,90
388,18	1482,32
388,39	1499,32
388,60	1499,52
388,81	1566,90
389,02	1546,83
389,23	1514,06
389,43	1504,85
389,64	1486,62
389,85	1473,10
390,06	1562,40
390,27	1481,50
390,48	1541,71
390,69	1464,30
390,89	1502,59
391,10	1504,23
391,31	1484,98
391,52	1521,85
391,73	1523,69
391,94	1484,98
392,14	1459,38
392,35	1443,00
392,56	1479,25
392,77	1501,57
392,98	1493,38
393,19	1549,70
393,39	1562,40
393,60	1510,38
393,81	1554,20
394,02	1564,03
394,23	1462,45
394,44	1458,77
394,64	1495,02
394,85	1520,21
395,06	1543,96
395,27	1511,20
395,48	1534,34
395,69	1554,41
395,89	1517,14
396,10	1514,06
396,31	1610,93
396,52	1454,06
396,73	1504,85
396,93	1506,28
397,14	1582,67
397,35	1563,01
397,56	1550,11
397,77	1495,84
397,97	1517,75
398,18	1553,38
398,39	1516,11
398,60	1538,43
398,81	1504,03
399,01	1483,14
399,22	1532,70
399,43	1597,62
399,64	1598,64
399,85	1568,95
400,05	1492,35
400,26	1491,54
400,47	1509,15
400,68	1493,58
400,89	1648,41
401,09	1489,28
401,30	1558,09
401,51	1567,31
401,72	1555,43
401,93	1651,07
402,13	1527,17
402,34	1576,53
402,55	1564,24
402,76	1539,66
402,96	1532,90
403,17	1571,82
403,38	1586,15
403,59	1591,89
403,80	1580,83
404,00	1584,31
404,21	1581,65
404,42	1563,83
404,63	1564,65
404,83	1554,41
405,04	1589,63
405,25	1627,93
405,46	1637,15
405,66	1574,27
405,87	1605,61
406,08	1577,35
406,29	1654,96
406,49	1575,09
406,70	1673,40
406,91	1546,01
407,12	1603,56
407,32	1671,96
407,53	1666,84
407,74	1633,26
407,95	1674,83
408,15	1628,34
408,36	1621,38
408,57	1678,72
408,78	1665,41
408,98	1712,31
409,19	1699,40
409,40	1659,26
409,61	1700,22
409,81	1703,30
410,02	1705,75
410,23	1721,32
410,44	1771,49
410,64	1679,33
410,85	1749,58
411,06	1741,59
411,26	1868,36
411,47	1779,89
411,68	1840,71
411,89	1790,95
412,09	1800,98
412,30	1860,58
412,51	1826,38
412,72	1848,50
412,92	1881,88
413,13	1882,70
413,34	1875,12
413,54	1907,07
413,75	1953,15
413,96	1952,33
414,17	1915,26
414,37	2020,53
414,58	2032,40
414,79	2007,42
414,99	2047,56
415,20	2074,18
415,41	2025,85
415,61	2081,97
415,82	2122,11
416,03	2135,42
416,24	2140,13
416,44	2188,66
416,65	2233,72
416,86	2257,89
417,06	2194,19
417,27	2242,12
417,48	2304,17
417,68	2307,04
417,89	2358,03
418,10	2336,53
418,30	2460,84
418,51	2433,81
418,72	2448,76
418,92	2517,36
419,13	2523,10
419,34	2571,63
419,55	2603,17
419,75	3028,95
419,96	2620,58
420,17	2785,24
420,37	2715,20
420,58	2758,00
420,79	2726,46
420,99	2817,19
421,20	2961,36
421,41	2928,80
421,61	2970,17
421,82	2930,23
422,03	3052,91
422,23	3050,04
422,44	3162,47
422,65	3254,84
422,85	3165,75
423,06	3256,27
423,26	3329,18
423,47	3446,12
423,68	3396,76
423,88	3494,24
424,09	3466,80
424,30	3554,45
424,50	3529,47
424,71	3708,87
424,92	3692,69
425,12	3767,03
425,33	3896,87
425,54	3869,02
425,74	3938,04
425,95	3921,04
426,15	4027,74
426,36	3969,37
426,57	4206,94
426,77	4123,99
426,98	4178,27
427,19	4248,10
427,39	4326,95
427,60	4406,41
427,81	4426,89
428,01	4513,93
428,22	4721,80
428,42	4539,32
428,63	4700,91
428,84	4736,54
429,04	4753,95
429,25	4768,49
429,45	4778,73
429,66	4939,70
429,87	5089,41
430,07	5168,25
430,28	5178,70
430,49	5266,15
430,69	5347,45
430,90	5328,20
431,10	5384,72
431,31	5519,07
431,52	5718,13
431,72	5587,47
431,93	5629,87
432,13	5799,85
432,34	5898,76
432,55	5780,39
432,75	6008,13
432,96	6109,50
433,16	6047,65
433,37	6238,32
433,58	6276,21
433,78	6283,17
433,99	5931,53
434,19	6350,75
434,40	6469,12
434,60	6546,33
434,81	6570,91
435,02	6572,55
435,22	6682,32
435,43	6569,88
435,63	6674,74
435,84	6861,10
436,05	6957,97
436,25	6686,00
436,46	7092,73
436,66	7085,77
436,87	7114,23
437,07	7004,26
437,28	7176,29
437,48	7383,54
437,69	7226,46
437,90	7392,14
438,10	7439,25
438,31	7470,17
438,51	7774,50
438,72	7695,45
438,92	7620,90
439,13	7810,13
439,34	7803,99
439,54	7900,86
439,75	7816,89
439,95	7910,48
440,16	8021,28
440,36	8221,78
440,57	8163,41
440,77	8458,93
440,98	8218,70
441,18	8218,50
441,39	8359,19
441,60	8581,40
441,80	8576,48
442,01	8315,57
442,21	8788,86
442,42	8596,35
442,62	8825,31
442,83	8844,15
443,03	9043,42
443,24	9111,82
443,44	9189,24
443,65	9306,99
443,85	9253,75
444,06	9377,03
444,26	9592,07
444,47	9426,39
444,67	9870,59
444,88	9786,83
445,09	9736,25
445,29	10022,96
445,50	10106,11
445,70	9984,67
445,91	10295,34
446,11	10102,43
446,32	10506,49
446,52	10633,67
446,73	10648,82
446,93	10910,35
447,14	10975,88
447,34	11086,47
447,55	10820,85
447,75	11234,95
447,96	11552,80
448,16	11301,10
448,37	11403,70
448,57	11436,06
448,78	11634,31
448,98	11650,28
449,19	11832,75
449,39	12178,86
449,60	11997,21
449,80	12385,71
450,01	12486,47
450,21	12329,18
450,42	12574,32
450,62	12490,36
450,83	12557,73
451,03	12570,43
451,23	12780,35
451,44	12828,27
451,64	12910,40
451,85	12865,13
452,05	13124,00
452,26	13062,76
452,46	12839,94
452,67	12855,30
452,87	12683,28
453,08	13100,04
453,28	12538,48
453,49	13264,90
453,69	12778,92
453,90	13067,06
454,10	13175,61
454,31	13182,57
454,51	12941,52
454,71	13054,37
454,92	12946,64
455,12	12860,83
455,33	12984,33
455,53	13228,85
455,74	13485,26
455,94	13405,18
456,15	13675,72
456,35	13869,05
456,55	13366,68
456,76	13579,67
456,96	14052,55
457,17	12918,79
457,37	14019,78
457,58	13307,50
457,78	13657,90
457,99	13165,57
458,19	12546,06
458,39	12947,46
458,60	13334,53
458,80	12793,87
459,01	12560,81
459,21	12194,43
459,42	12555,48
459,62	11879,24
459,82	12622,04
460,03	12122,54
460,23	11984,92
460,44	11873,71
460,64	10999,23
460,85	11790,36
461,05	10895,81
461,25	10788,70
461,46	11340,83
461,66	10988,99
461,87	10514,68
462,07	10543,97
462,27	10122,29
462,48	9962,96
462,68	9954,15
462,89	9810,18
463,09	9850,12
463,29	9742,39
463,50	9436,63
463,70	9415,33
463,91	8992,02
464,11	9014,75
464,31	8952,49
464,52	8899,45
464,72	8974,40
464,93	8666,18
465,13	8731,11
465,33	8434,56
465,54	8206,42
465,74	8156,65
465,95	8256,80
466,15	8049,34
466,35	8095,21
466,56	8041,96
466,76	8013,50
466,96	7855,19
467,17	7867,48
467,37	7801,74
467,58	7672,31
467,78	7569,70
467,98	7589,57
468,19	7343,20
468,39	7580,35
468,59	7532,02
468,80	7334,60
469,00	7199,22
469,21	7165,43
469,41	7227,08
469,61	7349,34
469,82	7085,97
470,02	7307,77
470,22	7243,46
470,43	7164,00
470,63	6985,62
470,83	7268,86
471,04	6977,22
471,24	6959,41
471,45	7033,95
471,65	7104,61
471,85	6804,58
472,06	6997,91
472,26	6863,77
472,46	6793,32
472,67	6926,03
472,87	6756,66
473,07	6732,49
473,28	6643,00
473,48	6744,58
473,68	6738,02
473,89	6626,61
474,09	6721,64
474,29	6527,29
474,50	6554,52
474,70	6440,86
474,90	6602,65
475,11	6451,31
475,31	6465,64
475,51	6302,42
475,72	6337,23
475,92	6235,86
476,12	6149,44
476,33	6263,30
476,53	6178,31
476,73	6168,07
476,93	6150,46
477,14	6110,32
477,34	6085,13
477,54	6105,40
477,75	6045,40
477,95	5961,64
478,15	6007,72
478,36	6039,05
478,56	5903,07
478,76	5950,78
478,97	5859,24
479,17	5837,94
479,37	5822,17
479,57	5884,02
479,78	5756,23
479,98	5750,70
480,18	5802,51
480,39	5721,62
480,59	5732,47
480,79	5718,75
480,99	5633,14
481,20	5674,51
481,40	5728,58
481,60	5614,71
481,81	5622,08
482,01	5546,51
482,21	5514,57
482,41	5504,12
482,62	5517,02
482,82	5515,59
483,02	5630,69
483,23	5469,31
483,43	5580,10
483,63	5498,59
483,83	5499,82
484,04	5689,67
484,24	5508,01
484,44	5526,44
484,64	5494,29
484,85	5478,32
485,05	5511,08
485,25	5514,98
485,45	5454,76
485,66	5572,52
485,86	5516,61
486,06	5529,93
486,26	5526,03
486,47	5587,88
486,67	5500,64
486,87	5587,68
487,07	5573,96
487,28	5432,44
487,48	5512,72
487,68	5555,32
487,88	5556,96
488,09	5549,59
488,29	5544,88
488,49	5617,17
488,69	5543,03
488,90	5607,54
489,10	5594,64
489,30	5553,89
489,50	5567,61
489,71	5670,01
489,91	5653,42
490,11	5668,78
490,31	5619,22
490,52	5666,52
490,72	5637,85
490,92	5757,04
491,12	5686,59
491,32	5706,87
491,53	5768,51
491,73	5652,39
491,93	5669,39
492,13	5732,26
492,33	5682,91
492,54	5738,82
492,74	5797,39
492,94	5761,35
493,14	5790,43
493,35	5788,79
493,55	5764,62
493,75	5855,35
493,95	5841,22
494,15	5753,15
494,36	5904,50
494,56	5868,45
494,76	5827,09
494,96	5924,16
495,16	5933,99
495,37	5964,30
495,57	5889,14
495,77	5954,26
495,97	6021,23
496,17	6027,58
496,37	6047,24
496,58	6089,43
496,78	5993,18
496,98	6049,09
497,18	6142,68
497,38	6148,41
497,59	6228,08
497,79	6140,83
497,99	6257,16
498,19	6283,37
498,39	6363,65
498,59	6345,84
498,80	6449,05
499,00	6379,83
499,20	6415,06
499,40	6362,01
499,60	6485,30
499,80	6530,56
500,01	6558,21
500,21	6556,37
500,41	6649,34
500,61	6769,15
500,81	6698,29
501,01	6763,21
501,22	6793,73
501,42	6850,66
501,62	6946,91
501,82	6976,61
502,02	6943,23
502,22	7048,90
502,42	7032,72
502,63	7201,27
502,83	7264,15
503,03	7254,11
503,23	7302,85
503,43	7319,03
503,63	7436,17
503,83	7531,00
504,04	7381,29
504,24	7514,82
504,44	7495,77
504,64	7652,03
504,84	7674,76
505,04	7680,50
505,24	7731,70
505,44	7782,49
505,65	7887,75
505,85	7966,39
506,05	8026,19
506,25	8032,34
506,45	8078,01
506,65	8119,79
506,85	8364,52
507,05	8530,40
507,26	8612,94
507,46	8795,21
507,66	8882,86
507,86	8947,78
508,06	9214,84
508,26	9224,46
508,46	9347,95
508,66	9609,68
508,86	9770,04
509,06	9937,56
509,27	10145,43
509,47	10207,08
509,67	10402,04
509,87	10527,79
510,07	10761,67
510,27	10814,71
510,47	11028,72
510,67	11076,64
510,87	11316,67
511,07	11466,37
511,28	11620,58
511,48	11659,91
511,68	11954,61
511,88	12086,70
512,08	12178,25
512,28	12314,23
512,48	12583,13
512,68	12733,04
512,88	12932,92
513,08	13330,02
513,28	13486,08
513,48	13582,74
513,68	13848,98
513,89	13840,58
514,09	13911,85
514,29	14256,52
514,49	14408,89
514,69	14545,29
514,89	14790,64
515,09	15070,80
515,29	15283,79
515,49	15482,85
515,69	15746,22
515,89	15963,71
516,09	16210,29
516,29	16268,04
516,49	16577,69
516,69	16913,35
516,89	16988,72
517,09	17209,49
517,29	17364,32
517,50	17601,06
517,70	17786,40
517,90	18142,14
518,10	18221,60
518,30	18864,25
518,50	18647,37
518,70	19039,56
518,90	19469,83
519,10	19667,46
519,30	19909,74
519,50	20191,33
519,70	20490,95
519,90	20597,86
520,10	20864,09
520,30	20939,05
520,50	21222,49
520,70	21686,97
520,90	21779,94
521,10	22006,24
521,30	22218,62
521,50	22949,13
521,70	23041,08
521,90	23236,05
522,10	23679,64
522,30	23606,32
522,50	24049,30
522,70	24054,42
522,90	24590,98
523,10	24774,48
523,30	25088,44
523,50	25246,95
523,70	25537,97
523,90	25784,54
524,10	26065,11
524,30	26031,32
524,50	26389,92
524,70	26753,84
524,90	26956,39
525,10	27395,88
525,30	27467,77
525,50	28047,34
525,70	28278,97
525,90	28317,06
526,10	28523,70
526,30	28782,15
526,50	28952,75
526,70	29210,18
526,90	29523,11
527,10	29647,21
527,30	29943,76
527,50	30343,32
527,70	30256,28
527,90	30363,59
528,10	30399,84
528,30	30833,40
528,50	31224,77
528,70	31309,55
528,90	31769,12
529,10	31997,46
529,30	32183,42
529,50	32656,91
529,70	32821,98
529,90	33008,96
530,10	33211,70
530,29	33319,22
530,49	33833,47
530,69	34130,83
530,89	34180,19
531,09	34086,60
531,29	34329,08
531,49	34612,92
531,69	34664,94
531,89	34995,49
532,09	35433,34
532,29	35512,80
532,49	35667,22
532,69	36000,22
532,89	36340,39
533,09	36316,43
533,29	36686,29
533,49	36720,90
533,68	36811,62
533,88	37506,91
534,08	37173,70
534,28	37199,30
534,48	37469,84
534,68	37551,96
534,88	37666,45
535,08	37969,75
535,28	38318,72
535,48	38506,52
535,68	38475,80
535,88	38790,17
536,08	39147,95
536,27	39418,28
536,47	39227,00
536,67	39933,75
536,87	39751,69
537,07	39769,51
537,27	40154,11
537,47	40215,55
537,67	40223,34
537,87	40585,21
538,07	41253,46
538,27	40993,37
538,46	41520,93
538,66	41525,43
538,86	41370,40
539,06	42086,58
539,26	42081,87
539,46	42161,12
539,66	42211,50
539,86	42436,98
540,06	42702,40
540,25	42594,88
540,45	42621,71
540,65	42683,76
540,85	43030,69
541,05	43187,36
541,25	43049,94
541,45	43367,99
541,65	43288,12
541,85	43241,22
542,04	43275,42
542,24	43440,08
542,44	43750,35
542,64	43933,44
542,84	43865,24
543,04	43849,67
543,24	43749,12
543,43	44018,22
543,63	44284,25
543,83	44396,07
544,03	44381,74
544,23	44664,56
544,43	44888,61
544,63	44953,12
544,82	45492,35
545,02	45267,07
545,22	45684,86
545,42	44878,57
545,62	45672,16
545,82	45540,89
546,02	45447,29
546,21	45567,10
546,41	45399,78
546,61	45477,60
546,81	46040,80
547,01	45586,56
547,21	46163,67
547,40	46244,36
547,60	46264,02
547,80	45980,58
548,00	46420,90
548,20	46330,38
548,40	46315,22
548,59	46550,12
548,79	46618,53
548,99	46830,29
549,19	46695,12
549,39	46360,48
549,59	46880,46
549,78	46171,46
549,98	46637,37
550,18	46334,27
550,38	46618,53
550,58	46574,29
550,77	46762,29
550,97	46916,10
551,17	46455,51
551,37	47124,38
551,57	46906,06
551,76	46932,07
551,96	46915,28
552,16	46840,12
552,36	47371,97
552,56	46840,12
552,75	47051,47
552,95	47031,40
553,15	47322,41
553,35	47109,22
553,55	46846,06
553,74	47568,78
553,94	46997,40
554,14	47181,31
554,34	47109,22
554,54	47189,91
554,73	47378,53
554,93	47387,95
555,13	47699,44
555,33	47379,96
555,53	47609,13
555,72	47361,12
555,92	47478,06
556,12	47758,22
556,32	47681,63
556,51	47648,04
556,71	47848,95
556,91	47550,97
557,11	47732,01
557,30	47843,21
557,50	47678,35
557,70	47365,42
557,90	47632,68
558,10	47464,75
558,29	47160,62
558,49	47795,49
558,69	47317,09
558,89	47333,88
559,08	47575,13
559,28	47612,20
559,48	47254,42
559,68	47292,51
559,87	47203,02
560,07	47165,33
560,27	47172,30
560,47	46978,15
560,66	47336,14
560,86	47241,52
561,06	47099,80
561,25	47325,90
561,45	47380,99
561,65	47282,27
561,85	47274,70
562,04	47448,16
562,24	47274,08
562,44	47388,77
562,64	47111,47
562,83	47411,50
563,03	47150,59
563,23	47396,96
563,42	47061,30
563,62	47387,33
563,82	46898,07
564,02	47336,54
564,21	47044,91
564,41	46970,98
564,61	47209,37
564,80	47534,17
565,00	47524,96
565,20	47559,36
565,40	47503,66
565,59	47565,71
565,79	47888,27
565,99	48189,11
566,18	48058,25
566,38	47805,12
566,58	47557,11
566,78	47584,14
566,97	47819,87
567,17	47868,40
567,37	47841,37
567,56	47763,96
567,76	47328,76
567,96	47455,94
568,15	47139,53
568,35	46891,93
568,55	47122,94
568,74	46800,18
568,94	47146,49
569,14	46940,26
569,33	46713,14
569,53	46686,11
569,73	46917,94
569,92	46457,56
570,12	46370,93
570,32	46548,08
570,52	46013,97
570,71	46563,64
570,91	46438,10
571,11	46642,28
571,30	46455,10
571,50	46763,73
571,70	46737,51
571,89	46696,96
572,09	46732,39
572,28	46753,69
572,48	46483,57
572,68	46654,57
572,87	46621,19
573,07	46908,31
573,27	46397,96
573,46	46601,73
573,66	46811,04
573,86	46305,19
574,05	46571,83
574,25	46464,11
574,45	46242,72
574,64	46772,94
574,84	46673,62
575,04	46660,10
575,23	46780,93
575,43	46553,61
575,62	46626,31
575,82	46176,58
576,02	45712,71
576,21	46119,03
576,41	46077,66
576,61	46161,42
576,80	45784,80
577,00	45633,86
577,19	45697,15
577,39	45939,83
577,59	45925,29
577,78	45827,40
577,98	46307,65
578,18	46072,95
578,37	46141,56
578,57	46365,40
578,76	46189,68
578,96	45864,87
579,16	46005,98
579,35	46606,65
579,55	45665,81
579,74	45621,99
579,94	45595,16
580,14	45733,19
580,33	45742,00
580,53	45748,96
580,72	45698,58
580,92	45615,64
581,12	45434,39
581,31	45240,45
581,51	45651,07
581,70	45331,58
581,90	45663,97
582,10	45420,06
582,29	45902,15
582,49	45423,54
582,68	45837,84
582,88	45446,27
583,07	45290,01
583,27	45104,87
583,47	45426,81
583,66	45727,87
583,86	45426,81
584,05	45608,88
584,25	45385,85
584,44	45838,05
584,64	45240,04
584,84	45318,07
585,03	44943,49
585,23	44650,63
585,42	44919,33
585,62	44548,44
585,81	44873,04
586,01	44941,65
586,20	45061,05
586,40	44943,29
586,60	44701,22
586,79	44933,46
586,99	44637,73
587,18	44960,49
587,38	44984,25
587,57	44712,69
587,77	44751,19
587,96	44753,44
588,16	44577,93
588,35	44630,77
588,55	44545,16
588,75	44348,76
588,94	44200,90
589,14	44292,44
589,33	43828,37
589,53	44581,21
589,72	43833,49
589,92	44363,51
590,11	43598,18
590,31	43902,72
590,50	43920,94
590,70	43514,83
590,89	43651,63
591,09	43417,14
591,28	43159,71
591,48	43442,74
591,67	42696,46
591,87	42988,91
592,06	42899,83
592,26	43012,46
592,45	42810,33
592,65	43171,39
592,84	43015,13
593,04	43019,22
593,23	42832,65
593,43	42912,93
593,62	42430,84
593,82	42413,02
594,01	42359,16
594,21	42552,90
594,40	42327,01
594,60	42083,51
594,79	42195,94
594,99	41730,03
595,18	42228,09
595,38	42236,90
595,57	42060,57
595,77	42225,84
595,96	42118,12
596,16	42185,29
596,35	41826,48
596,55	41849,01
596,74	41953,66
596,94	41971,69
597,13	41914,96
597,33	41884,03
597,52	41570,49
597,72	41798,43
597,91	42026,37
598,11	41875,23
598,30	41763,61
598,50	41969,64
598,69	41477,10
598,88	41286,44
599,08	40732,66
599,27	40956,51
599,47	40512,10
599,66	40692,12
599,86	40334,54
600,05	40593,40
600,25	40619,62
600,44	40028,98
600,64	40007,89
600,83	39916,96
601,02	39973,89
601,22	39862,69
601,41	39564,71
601,61	40032,67
601,80	39815,58
602,00	40060,32
602,19	39658,10
602,38	39497,74
602,58	39237,44
602,77	39496,51
602,97	39462,92
603,16	39624,92
603,36	38789,96
603,55	39143,44
603,74	38306,64
603,94	38480,31
604,13	38442,22
604,33	38280,63
604,52	37864,89
604,72	37729,73
604,91	37470,66
605,10	37879,23
605,30	37225,72
605,49	37362,32
605,69	37389,36
605,88	37102,44
606,07	37427,65
606,27	37243,13
606,46	37124,55
606,66	37081,75
606,85	36518,56
607,04	36832,10
607,24	36553,58
607,43	36996,35
607,63	36752,44
607,82	36607,85
608,01	36651,68
608,21	36162,83
608,40	36375,61
608,60	36019,67
608,79	36049,17
608,98	35506,86
609,18	35970,11
609,37	35555,81
609,57	34986,68
609,76	35154,00
609,95	35008,39
610,15	35140,07
610,34	35067,78
610,53	34709,79
610,73	34552,10
610,92	34680,51
611,11	34383,14
611,31	34563,77
611,50	34249,41
611,70	34330,10
611,89	34276,24
612,08	34384,17
612,28	34200,05
612,47	34371,67
612,66	34208,45
612,86	34474,28
613,05	34243,27
613,24	34362,66
613,44	34269,89
613,63	34229,75
613,82	34147,83
614,02	34310,44
614,21	33811,96
614,41	34136,36
614,60	34001,20
614,79	33752,98
614,99	33476,92
615,18	33563,34
615,37	33286,86
615,57	33781,24
615,76	33325,57
615,95	33251,64
616,15	33075,72
616,34	33661,03
616,53	33404,01
616,73	33565,18
616,92	33325,37
617,11	33341,75
617,30	33057,08
617,50	33203,10
617,69	33297,31
617,88	33461,56
618,08	33165,22
618,27	33661,03
618,46	33543,68
618,66	33544,09
618,85	33698,51
619,04	33682,12
619,24	33990,55
619,43	33959,01
619,62	33742,54
619,82	33878,73
620,01	33760,36
620,20	33985,43
620,39	33590,58
620,59	33816,26
620,78	33772,44
620,97	33745,00
621,17	33517,26
621,36	33699,74
621,55	33409,13
621,74	33615,15
621,94	33253,89
622,13	33695,23
622,32	33489,20
622,52	33358,54
622,71	33471,59
622,90	33280,31
623,09	33195,94
623,29	33236,69
623,48	33112,79
623,67	33161,53
623,86	32799,86
624,06	32823,00
624,25	32877,07
624,44	32832,83
624,64	32627,21
624,83	32627,62
625,02	32441,05
625,21	32560,04
625,41	32473,62
625,60	32544,89
625,79	32313,26
625,98	32220,08
626,18	32555,74
626,37	31864,35
626,56	31429,56
626,75	31773,01
626,95	31183,81
627,14	31233,98
627,33	31330,85
627,52	31228,04
627,72	31110,90
627,91	31259,79
628,10	31321,43
628,29	31364,23
628,49	31121,75
628,68	31179,91
628,87	31089,39
629,06	31493,25
629,25	31138,75
629,45	30796,94
629,64	30854,90
629,83	30938,25
630,02	30583,34
630,22	30593,38
630,41	30531,32
630,60	30291,51
630,79	30055,99
630,98	29991,89
631,18	29839,31
631,37	30001,72
631,56	29913,66
631,75	30127,46
631,94	30067,46
632,14	29773,16
632,33	29631,24
632,52	30002,33
632,71	30023,63
632,90	29818,42
633,10	29527,00
633,29	29140,75
633,48	29154,27
633,67	29022,99
633,86	28940,67
634,06	28833,15
634,25	28534,96
634,44	28659,27
634,63	28308,66
634,82	28481,31
635,02	28062,70
635,21	28196,02
635,40	28126,39
635,59	27956,21
635,78	28014,16
635,97	27820,84
636,17	27438,48
636,36	27909,10
636,55	27473,30
636,74	27664,17
636,93	27153,61
637,12	27177,98
637,32	27089,92
637,51	26703,26
637,70	26639,16
637,89	26673,15
638,08	26489,04
638,27	26380,30
638,47	26180,62
638,66	26160,75
638,85	25747,27
639,04	26168,13
639,23	25774,92
639,42	25922,57
639,62	25770,00
639,81	25861,95
640,00	25746,86
640,19	25560,29
640,38	25515,44
640,57	25617,63
640,76	25316,78
640,95	25507,86
641,15	25208,24
641,34	25193,91
641,53	25040,51
641,72	25012,87
641,91	24939,14
642,10	24649,97
642,29	24649,35
642,49	24700,76
642,68	24516,03
642,87	24825,48
643,06	24825,27
643,25	24814,83
643,44	24471,79
643,63	24526,47
643,82	24235,25
644,01	24560,27
644,21	24322,70
644,40	24449,47
644,59	24058,72
644,78	24110,74
644,97	23693,36
645,16	23898,36
645,35	23556,97
645,54	23935,63
645,73	23458,87
645,92	23742,72
646,12	23529,93
646,31	23436,75
646,50	23374,90
646,69	23500,24
646,88	23174,20
647,07	23231,54
647,26	22988,24
647,45	23094,53
647,64	23077,33
647,83	23144,91
648,02	23052,96
648,22	22853,28
648,41	22618,59
648,60	22394,54
648,79	22265,31
648,98	22387,37
649,17	22061,74
649,36	22101,06
649,55	21745,33
649,74	21632,49
649,93	21402,91
650,12	21650,92
650,31	21686,15
650,50	21419,30
650,69	21405,78
650,88	21692,08
651,08	21225,97
651,27	21512,27
651,46	21369,94
651,65	21100,02
651,84	20821,08
652,03	20974,07
652,22	20728,52
652,41	20749,40
652,60	20860,40
652,79	20743,88
652,98	20501,40
653,17	20522,08
653,36	20283,90
653,55	20328,55
653,74	20210,99
653,93	20147,10
654,12	19938,61
654,31	20190,10
654,50	20140,34
654,69	20050,02
654,88	19956,64
655,07	19967,08
655,26	19583,70
655,45	19728,90
655,64	19568,96
655,83	19669,10
656,02	19472,09
656,21	19262,78
656,40	19038,53
656,59	19225,72
656,78	18921,39
656,97	19025,42
657,17	19028,91
657,36	18834,55
657,55	18699,80
657,74	18801,17
657,93	18687,92
658,12	18688,12
658,31	18681,37
658,50	18737,69
658,69	18383,59
658,87	18589,21
659,06	18292,87
659,25	18327,89
659,44	18109,16
659,63	18164,05
659,82	17952,90
660,01	17921,36
660,20	17898,02
660,39	17805,65
660,58	17618,47
660,77	17533,68
660,96	17574,85
661,15	17292,64
661,34	17384,39
661,53	17313,12
661,72	17207,85
661,91	17295,10
662,10	17005,72
662,29	17025,99
662,48	16817,10
662,67	17008,79
662,86	16688,49
663,05	16778,60
663,24	16826,32
663,43	16621,72
663,62	16587,93
663,81	16405,46
664,00	16525,88
664,19	16288,31
664,38	16340,33
664,57	16124,68
664,76	16098,06
664,94	16038,26
665,13	15955,31
665,32	15896,95
665,51	15907,60
665,70	15793,32
665,89	15767,72
666,08	15681,50
666,27	15694,40
666,46	15627,84
666,65	15461,34
666,84	15438,20
667,03	15364,68
667,22	15192,86
667,41	15262,28
667,60	15140,22
667,78	14922,73
667,97	14855,35
668,16	14752,95
668,35	14740,46
668,54	14531,16
668,73	14584,61
668,92	14453,54
669,11	14401,52
669,30	14339,88
669,49	14310,18
669,68	14317,76
669,86	14282,74
670,05	14115,62
670,24	14065,04
670,43	14001,55
670,62	14068,32
670,81	14029,20
671,00	13954,24
671,19	13898,54
671,38	13723,64
671,57	13784,06
671,75	13773,82
671,94	13616,33
672,13	13578,44
672,32	13460,48
672,51	13396,38
672,70	13436,72
672,89	13257,53
673,08	13098,19
673,26	13225,58
673,45	12949,72
673,64	13207,15
673,83	12981,66
674,02	13015,87
674,21	13053,34
674,40	13047,81
674,59	12955,86
674,77	12940,50
674,96	12789,16
675,15	12804,72
675,34	12623,68
675,53	12617,13
675,72	12421,34
675,91	12510,84
676,09	12454,72
676,28	12441,00
676,47	12091,41
676,66	12169,24
676,85	12199,55
677,04	12265,90
677,22	12120,08
677,41	12069,29
677,60	12096,94
677,79	11965,26
677,98	11953,79
678,17	11811,05
678,36	11858,35
678,54	11770,50
678,73	11691,85
678,92	11632,46
679,11	11717,25
679,30	11648,85
679,48	11524,53
679,67	11562,83
679,86	11536,21
680,05	11354,14
680,24	11312,77
680,43	11325,88
680,61	11190,31
680,80	11224,30
680,99	11243,14
681,18	11178,84
681,37	11203,00
681,55	11279,39
681,74	11062,92
681,93	11048,79
682,12	10931,44
682,31	10896,42
682,49	10830,89
682,68	10857,31
682,87	10686,51
683,06	10773,75
683,25	10654,76
683,43	10802,22
683,62	10590,66
683,81	10678,93
684,00	10617,28
684,19	10477,00
684,37	10417,81
684,56	10325,45
684,75	10434,40
684,94	10327,70
685,12	10262,37
685,31	10170,21
685,50	10069,86
685,69	9981,80
685,88	9882,68
686,06	9895,38
686,25	9827,38
686,44	9902,75
686,63	9902,54
686,81	9899,06
687,00	9750,99
687,19	9787,86
687,38	9724,17
687,56	9669,07
687,75	9676,65
687,94	9657,81
688,13	9439,29
688,31	9498,89
688,50	9327,68
688,69	9331,57
688,88	9352,87
689,06	9199,68
689,25	9121,04
689,44	9128,62
689,63	9081,10
689,81	9095,85
690,00	9094,82
690,19	9118,58
690,38	9109,36
690,56	8980,75
690,75	9121,86
690,94	8873,03
691,13	9014,13
691,31	9057,96
691,50	8908,87
691,69	8908,87
691,87	8787,83
692,06	8779,85
692,25	8768,79
692,44	8658,40
692,62	8644,48
692,81	8733,56
693,00	8535,73
693,18	8559,89
693,37	8456,47
693,56	8318,64
693,75	8284,85
693,93	8357,15
694,12	8327,45
694,31	8217,68
694,49	8091,73
694,68	8252,49
694,87	8110,78
695,05	8135,76
695,24	8076,16
695,43	8006,74
695,62	7993,02
695,80	7966,39
695,99	8012,27
696,18	7995,47
696,36	7982,37
696,55	7907,21
696,74	7730,06
696,92	7895,94
697,11	7839,62
697,30	7825,49
697,48	7830,41
697,67	7751,77
697,86	7697,70
698,04	7649,78
698,23	7533,25
698,42	7621,11
698,60	7484,71
698,79	7494,34
698,98	7486,55
699,16	7360,81
699,35	7356,30
699,54	7420,00
699,72	7326,20
699,91	7472,22
700,10	7275,00
700,28	7286,26
700,47	7329,07
700,66	7242,44
700,84	7152,74
701,03	7054,02
701,21	7098,87
701,40	7185,09
701,59	7153,96
701,77	7126,11
701,96	7099,28
702,15	7145,36
702,33	7074,30
702,52	7044,19
702,71	7015,52
702,89	7005,90
703,08	6895,31
703,26	6929,71
703,45	6960,64
703,64	6934,22
703,82	6867,25
704,01	6749,49
704,20	6737,41
704,38	6744,78
704,57	6629,27
704,75	6588,93
704,94	6548,99
705,13	6627,02
705,31	6633,99
705,50	6567,43
705,68	6490,63
705,87	6596,71
706,06	6528,92
706,24	6452,13
706,43	6369,80
706,61	6461,34
706,80	6372,46
706,99	6405,23
707,17	6431,65
707,36	6365,29
707,54	6326,18
707,73	6345,22
707,92	6327,40
708,10	6255,32
708,29	6207,60
708,47	6242,00
708,66	6159,06
708,84	6151,69
709,03	6091,48
709,22	6081,44
709,40	6029,02
709,59	6053,18
709,77	6029,42
709,96	6036,39
710,14	5911,46
710,33	5984,16
710,52	5923,34
710,70	5921,91
710,89	5795,75
711,07	5818,28
711,26	5843,88
711,44	5884,63
711,63	5813,77
711,81	5793,09
712,00	5743,53
712,19	5740,05
712,37	5766,06
712,56	5727,35
712,74	5615,53
712,93	5663,86
713,11	5577,44
713,30	5592,59
713,48	5553,68
713,67	5582,35
713,85	5497,98
714,04	5517,43
714,22	5512,31
714,41	5519,48
714,59	5432,24
714,78	5451,28
714,97	5398,65
715,15	5349,70
715,34	5379,81
715,52	5325,13
715,71	5308,34
715,89	5263,28
716,08	5337,83
716,26	5231,54
716,45	5188,32
716,63	5332,91
716,82	5210,03
717,00	5163,95
717,19	5232,15
717,37	5200,00
717,56	5196,11
717,74	5149,62
717,93	5132,21
718,11	5168,46
718,30	4992,74
718,48	5096,98
718,67	5106,81
718,85	4975,54
719,04	4964,07
719,22	4909,39
719,41	4978,00
719,59	5008,31
719,78	4887,27
719,96	4861,26
720,15	4896,49
720,33	4905,50
720,52	4827,68
720,70	4705,62
720,88	4742,89
721,07	4702,75
721,25	4691,90
721,44	4615,71
721,62	4606,70
721,81	4637,63
721,99	4533,18
722,18	4623,70
722,36	4651,55
722,55	4633,94
722,73	4559,60
722,92	4562,06
723,10	4577,01
723,28	4556,73
723,47	4502,46
723,65	4546,08
723,84	4489,56
724,02	4439,18
724,21	4434,88
724,39	4339,24
724,58	4377,33
724,76	4414,40
724,94	4337,60
725,13	4390,03
725,31	4322,03
725,50	4403,75
725,68	4375,49
725,87	4289,68
726,05	4309,75
726,23	4273,91
726,42	4243,60
726,60	4253,63
726,79	4204,89
726,97	4244,82
727,16	4189,94
727,34	4169,66
727,52	4107,61
727,71	4148,16
727,89	3998,25
728,08	4038,80
728,26	4120,92
728,44	4064,81
728,63	4127,48
728,81	4005,21
729,00	4040,44
729,18	4029,17
729,36	4001,73
729,55	3988,01
729,73	4005,21
729,92	3940,50
730,10	3879,88
730,28	3946,03
730,47	3874,96
730,65	3878,44
730,84	3957,70
731,02	3866,56
731,20	3903,84
731,39	3885,20
731,57	3891,14
731,75	3881,31
731,94	3801,64
732,12	3884,18
732,31	3780,96
732,49	3751,26
732,67	3806,56
732,86	3771,74
733,04	3804,31
733,22	3785,47
733,41	3708,46
733,59	3747,78
733,78	3735,29
733,96	3777,27
734,14	3655,62
734,33	3685,93
734,51	3692,08
734,69	3695,76
734,88	3657,67
735,06	3678,56
735,24	3660,74
735,43	3670,37
735,61	3615,48
735,79	3644,77
735,98	3643,34
736,16	3687,57
736,34	3554,86
736,53	3617,94
736,71	3622,04
736,89	3558,96
737,08	3515,75
737,26	3494,45
737,44	3477,66
737,63	3490,76
737,81	3450,62
737,99	3556,71
738,18	3450,62
738,36	3540,12
738,54	3425,84
738,73	3451,85
738,91	3448,16
739,09	3364,40
739,28	3361,95
739,46	3341,88
739,64	3314,02
739,82	3363,58
740,01	3278,39
740,19	3454,72
740,37	3316,48
740,56	3272,24
740,74	3249,10
740,92	3265,90
741,11	3217,77
741,29	3236,61
741,47	3324,67
741,65	3230,06
741,84	3248,49
742,02	3292,93
742,20	3208,14
742,39	3197,70
742,57	3202,41
742,75	3150,60
742,93	3167,59
743,12	3168,62
743,30	3134,01
743,48	3153,87
743,67	3120,08
743,85	3073,39
744,03	3148,34
744,21	3088,95
744,40	3054,75
744,58	3093,05
744,76	3068,68
744,94	3040,82
745,13	3040,00
745,31	3046,97
745,49	3029,36
745,67	2979,79
745,86	3036,52
746,04	3035,29
746,22	3019,93
746,40	2951,53
746,59	2973,86
746,77	3021,57
746,95	3058,64
747,13	2987,37
747,32	3010,92
747,50	2957,27
747,68	2945,18
747,86	2966,07
748,05	2972,63
748,23	2912,83
748,41	2922,25
748,59	2896,65
748,77	2838,89
748,96	2865,11
749,14	2821,08
749,32	2965,25
749,50	2867,57
749,69	2844,22
749,87	2816,98
750,05	2845,24
750,23	2798,75
750,41	2807,15
750,60	2799,57
750,78	2793,02
750,96	2833,16
751,14	2787,90
751,32	2760,66
751,51	2752,67
751,69	2743,87
751,87	2673,01
752,05	2796,71
752,23	2772,74
752,42	2724,00
752,60	2757,18
752,78	2734,86
752,96	2672,80
753,14	2697,17
753,33	2646,79
753,51	2712,13
753,69	2699,63
753,87	2698,81
754,05	2755,95
754,23	2703,11
754,42	2683,86
754,60	2688,37
754,78	2764,14
754,96	2653,76
755,14	2704,14
755,32	2708,44
755,51	2620,17
755,69	2666,86
755,87	2689,39
756,05	2643,93
756,23	2695,33
756,41	2690,83
756,60	2705,37
756,78	2694,92
756,96	2622,63
757,14	2670,76
757,32	2651,71
757,50	2703,11
757,68	2655,60
757,87	2662,15
758,05	2649,66
758,23	2620,99
758,41	2718,06
758,59	2685,30
758,77	2678,54
758,95	2660,31
759,14	2634,30
759,32	2680,59
759,50	2614,64
759,68	2623,65
759,86	2629,59
760,04	2642,29
760,22	2623,45
760,40	2777,46
760,59	2622,01
760,77	2671,58
760,95	2603,99
761,13	2614,23
761,31	2672,39
761,49	2652,94
761,67	2680,18
761,85	2620,58
762,03	2594,78
762,22	2643,52
762,40	2664,20
762,58	2613,82
762,76	2617,51
762,94	2629,80
763,12	2614,85
763,30	2681,82
763,48	2620,58
763,66	2548,70
763,84	2584,33
764,02	2575,94
764,21	2572,86
764,39	2642,70
764,57	2557,30
764,75	2519,41
764,93	2551,56
765,11	2522,07
765,29	2551,36
765,47	2547,88
765,65	2535,59
765,83	2517,57
766,01	2510,40
766,19	2531,49
766,37	2591,70
766,56	2505,08
766,74	2495,04
766,92	2485,82
767,10	2467,19
767,28	2495,65
767,46	2470,26
767,64	2437,08
767,82	2482,75
768,00	2421,11
768,18	2410,05
768,36	2479,89
768,54	2502,41
768,72	2483,98
768,90	2397,97
769,08	2348,00
769,26	2418,04
769,44	2364,99
769,62	2409,23
769,80	2437,29
769,98	2409,03
770,16	2348,82
770,34	2358,65
770,52	2342,47
770,71	2359,06
770,89	2356,60
771,07	2406,98
771,25	2311,54
771,43	2379,13
771,61	2340,01
771,79	2311,13
771,97	2321,58
772,15	2293,52
772,33	2302,94
772,51	2343,70
772,69	2257,07
772,87	2311,54
773,05	2276,52
773,23	2299,87
773,41	2290,45
773,59	2285,53
773,77	2237,00
773,95	2275,09
774,13	2265,26
774,31	2276,93
774,49	2231,26
774,67	2238,02
774,85	2190,71
775,03	2207,30
775,21	2234,13
775,39	2173,71
775,57	2171,26
775,75	2245,80
775,93	2157,33
776,10	2176,38
776,28	2225,73
776,46	2127,63
776,64	2173,92
776,82	2114,73
777,00	2942,93
777,18	2097,53
777,36	2147,91
777,54	2118,42
777,72	2097,12
777,90	2136,85
778,08	2068,45
778,26	2083,40
778,44	2073,98
778,62	2098,76
778,80	2154,26
778,98	2134,60
779,16	2093,43
779,34	2157,33
779,52	2017,25
779,70	2161,02
779,88	2043,87
780,05	2030,15
780,23	2050,43
780,41	2080,94
780,59	2054,11
780,77	2063,33
780,95	2047,56
781,13	2087,49
781,31	2053,29
781,49	2072,13
781,67	2084,83
781,85	2031,99
782,03	2026,47
782,21	2000,66
782,39	2020,32
782,56	2055,34
782,74	2038,14
782,92	1996,97
783,10	2097,94
783,28	1951,92
783,46	1995,95
783,64	2020,94
783,82	2009,67
784,00	2048,58
784,18	2002,09
784,35	1964,82
784,53	1992,06
784,71	1961,75
784,89	1969,94
785,07	1973,83
785,25	2002,71
785,43	1995,34
785,61	1922,02
785,79	1970,15
785,96	1994,52
786,14	1934,51
786,32	1980,18
786,50	1984,07
786,68	1894,17
786,86	1918,33
787,04	1937,38
787,22	1905,02
787,39	1908,91
787,57	1903,18
787,75	1928,98
787,93	1933,90
788,11	1868,77
788,29	1925,71
788,47	1919,15
788,65	1875,94
788,82	1897,03
789,00	1864,06
789,18	1882,90
789,36	1870,61
789,54	1875,32
789,72	1852,18
789,89	1861,81
790,07	1909,94
790,25	1898,06
790,43	1861,60
790,61	1879,22
790,79	1888,43
790,96	1848,70
791,14	1934,72
791,32	1791,56
791,50	1880,44
791,68	1914,03
791,86	1872,05
792,03	1823,92
792,21	1866,11
792,39	1832,52
792,57	1790,13
792,75	1779,68
792,93	1851,77
793,10	1841,12
793,28	1823,10
793,46	1814,71
793,64	1852,80
793,82	1898,06
793,99	1861,81
794,17	1781,94
794,35	1846,65
794,53	1825,35
794,71	1737,50
794,88	1769,65
795,06	1813,89
795,24	1797,50
795,42	1799,35
795,60	1836,82
795,77	1776,20
795,95	1795,86
796,13	1784,60
796,31	1805,69
796,49	1857,10
796,66	1789,52
796,84	1735,45
797,02	1834,16
797,20	1789,52
797,37	1775,59
797,55	1735,04
797,73	1738,52
797,91	1715,79
798,08	1810,20
798,26	1807,95
798,44	1727,05
798,62	1709,44
798,80	1752,86
798,97	1745,89
799,15	1755,11
799,33	1814,50
799,51	1801,19
799,68	1766,58
799,86	1746,51
800,04	1753,06
800,22	1753,27
800,39	1755,93
800,57	1767,40
800,75	1751,42
800,93	1775,38
801,10	1776,61
801,28	1818,39
801,46	1709,23
801,63	1754,90
801,81	1760,64
801,99	1737,91
802,17	1730,94
802,34	1790,95
802,52	1701,25
802,70	1764,73
802,88	1768,42
803,05	1781,94
803,23	1719,68
803,41	1710,05
803,58	1735,24
803,76	1741,59
803,94	1796,48
804,12	1737,09
804,29	1708,21
804,47	1748,15
804,65	1730,94
804,82	1726,23
805,00	1701,04
805,18	1691,01
805,35	1669,50
805,53	1726,85
805,71	1707,60
805,89	1733,61
806,06	1714,56
806,24	1653,73
806,42	1691,62
806,59	1676,88
806,77	1782,96
806,95	1716,81
807,12	1720,09
807,30	1723,98
807,48	1643,90
807,65	1656,19
807,83	1712,72
808,01	1683,02
808,18	1722,34
808,36	1701,45
808,54	1602,95
808,71	1683,23
808,89	1709,03
809,07	1695,92
809,24	1721,11
809,42	1755,72
809,60	1650,25
809,77	1698,18
809,95	1726,03
810,13	1670,53
810,30	1716,40
810,48	1751,01
810,66	1662,13
810,83	1697,15
811,01	1655,37
811,18	1676,06
811,36	1593,93
811,54	1655,37
811,71	1668,07
811,89	1694,49
812,07	1633,05
812,24	1746,30
812,42	1629,77
812,59	1636,33
812,77	1689,78
812,95	1672,78
813,12	1663,16
813,30	1638,78
813,48	1656,40
813,65	1678,72
813,83	1684,25
814,00	1690,60
814,18	1696,13
814,36	1642,68
814,53	1665,00
814,71	1654,55
814,88	1673,40
815,06	1607,66
815,24	1670,53
815,41	1594,96
815,59	1654,14
815,76	1612,37
815,94	1706,98
816,12	1631,82
816,29	1701,86
816,47	1639,19
816,64	1711,90
816,82	1603,35
817,00	1644,31
817,17	1650,05
817,35	1725,41
817,52	1611,55
817,70	1651,28
817,87	1661,11
818,05	1603,76
818,23	1628,54
818,40	1682,61
818,58	1630,80
818,75	1610,73
818,93	1601,51
819,10	1635,10
819,28	1616,26
819,46	1618,71
819,63	1614,21
819,81	1674,62
819,98	1569,36
820,16	1652,10
820,33	1590,66
820,51	1700,63
820,68	1623,63
820,86	1636,12
821,03	1698,18
821,21	1671,76
821,39	1721,32
821,56	1613,59
821,74	1583,08
821,91	1592,91
822,09	1628,95
822,26	1596,80
822,44	1570,38
822,61	1577,96
822,79	1654,14
822,96	1628,75
823,14	1569,77
823,31	1568,33
823,49	1652,10
823,66	1640,01
823,84	1601,31
824,01	1587,79
824,19	1549,49
824,36	1604,58
824,54	1614,41
824,71	1630,80
824,89	1610,73
825,06	1669,30
825,24	1597,62
825,41	1620,76
825,59	1608,47
825,76	1640,22
825,94	1589,02
826,11	1651,07
826,29	1562,40
826,46	1584,51
826,64	1658,04
826,81	1626,91
826,99	1591,48
827,16	1565,67
827,34	1569,97
827,51	1565,47
827,69	1669,91
827,86	1615,23
828,04	1586,77
828,21	1592,50
828,39	1605,61
828,56	1571,00
828,74	1589,63
828,91	1575,91
829,09	1703,30
829,26	1570,79
829,43	1639,19
829,61	1592,09
829,78	1569,15
829,96	1601,31
830,13	1549,29
830,31	1609,50
830,48	1594,75
830,66	1555,64
830,83	1567,31
831,01	1559,32
831,18	1547,24
831,35	1574,48
831,53	1598,44
831,70	1625,47
831,88	1653,12
832,05	1597,83
832,23	1557,28
832,40	1610,52
832,57	1608,88
832,75	1560,55
832,92	1612,57
833,10	1660,08
833,27	1566,49
833,45	1576,94
833,62	1568,33
833,79	1577,96
833,97	1551,34
834,14	1577,35
834,32	1594,34
834,49	1531,06
834,66	1557,48
834,84	1521,85
835,01	1632,03
835,19	1505,67
835,36	1542,53
835,53	1632,23
835,71	1587,99
835,88	1583,90
836,06	1599,05
836,23	1640,01
836,40	1523,28
836,58	1548,06
836,75	1563,01
836,93	1556,05
837,10	1555,02
837,27	1581,65
837,45	1552,57
837,62	1520,21
837,79	1537,61
837,97	1586,77
838,14	1553,38
838,32	1573,66
838,49	1512,63
838,66	1568,33
838,84	1588,40
839,01	1586,56
839,18	1569,97
839,36	1523,89
839,53	1544,78
839,70	1590,45
839,88	1556,25
840,05	1593,11
840,23	1555,02
840,40	1521,03
840,57	1569,15
840,75	1572,02
840,92	1645,95
841,09	1568,74
841,27	1588,81
841,44	1551,34
841,61	1607,04
841,79	1541,92
841,96	1551,75
842,13	1476,59
842,31	1552,57
842,48	1536,59
842,65	1533,93
842,83	1540,48
843,00	1577,76
843,17	1505,87
843,35	1576,32
843,52	1521,64
843,69	1558,09
843,86	1527,38
844,04	1551,75
844,21	1525,94
844,38	1562,80
844,56	1535,57
844,73	1562,60
844,90	1566,90
845,08	1556,05
845,25	1533,72
845,42	1587,59
845,60	1571,41
845,77	1496,86
845,94	1514,27
846,11	1530,86
846,29	1606,63
846,46	1537,00
846,63	1540,69
846,81	1580,83
846,98	1535,36
847,15	1540,89
847,32	1535,77
847,50	1532,70
847,67	1502,80
847,84	1528,81
848,01	1573,86
848,19	1561,99
848,36	1544,58
848,53	1512,63
848,71	1586,97
848,88	1498,91
849,05	1501,98
849,22	1515,50
849,40	1497,68
849,57	1564,03
849,74	1527,17
849,91	1539,87
850,09	1509,15
850,26	1517,75
850,43	1524,10
850,60	1499,73
850,78	1544,37
850,95	1512,63
851,12	1498,91
851,29	1555,84
851,47	1589,43
851,64	1519,18
851,81	1522,46
851,98	1541,30
852,15	1599,05
852,33	1497,68
852,50	1513,04
852,67	1536,80
852,84	1538,64
853,02	1580,83
853,19	1577,55
853,36	1513,45
853,53	1460,20
853,70	1604,38
853,88	1566,29
854,05	1563,62
854,22	1502,39
854,39	1544,37
854,56	1557,69
854,74	1479,45
854,91	1565,88
855,08	1455,90
855,25	1531,68
855,42	1477,61
855,60	1549,90
855,77	1565,67
855,94	1557,69
856,11	1494,40
856,28	1532,09
856,46	1577,35
856,63	1492,56
856,80	1498,29
856,97	1586,36
857,14	1558,50
857,31	1504,85
857,49	1527,17
857,66	1551,13
857,83	1477,81
858,00	1494,40
858,17	1517,14
858,34	1530,65
858,52	1490,92
858,69	1509,15
858,86	1527,38
859,03	1509,35
859,20	1564,44
859,37	1538,84
859,55	1495,22
859,72	1541,92
859,89	1490,51
860,06	1552,57
860,23	1579,80
860,40	1475,77
860,57	1576,12
860,75	1466,35
860,92	1544,17
861,09	1540,07
861,26	1556,66
861,43	1498,29
861,60	1525,94
861,77	1486,01
861,95	1489,08
862,12	1524,92
862,29	1507,92
862,46	1540,69
862,63	1560,76
862,80	1565,47
862,97	1614,62
863,14	1460,20
863,31	1582,26
863,49	1524,51
863,66	1516,32
863,83	1554,20
864,00	1574,89
864,17	1484,98
864,34	1515,29
864,51	1475,56
864,68	1521,44
864,85	1501,57
865,02	1514,68
865,20	1539,66
865,37	1490,10
865,54	1499,11
865,71	1526,76
865,88	1502,19
866,05	1483,96
866,22	1494,40
866,39	1516,93
866,56	1506,69
866,73	1503,62
866,90	1587,99
867,07	1530,65
867,25	1489,49
867,42	1575,71
867,59	1499,52
867,76	1559,53
867,93	1505,26
868,10	1533,11
868,27	1487,85
868,44	1552,77
868,61	1501,37
868,78	1541,51
868,95	1474,95
869,12	1549,70
869,29	1535,16
869,46	1533,11
869,63	1511,61
869,80	1488,26
869,97	1558,91
870,14	1536,18
870,32	1517,75
870,49	1504,03
870,66	1545,81
870,83	1514,47
871,00	1483,34
871,17	1504,23
871,34	1509,35
871,51	1534,75
871,68	1482,93
871,85	1507,71
872,02	1564,44
872,19	1504,85
872,36	1481,91
872,53	1507,71
872,70	1533,31
872,87	1498,70
873,04	1482,73
873,21	1465,12
873,38	1466,76
873,55	1545,60
873,72	1518,36
873,89	1506,69
874,06	1468,39
874,23	1457,95
874,40	1483,34
874,57	1503,21
874,74	1566,49
874,91	1475,77
875,08	1477,00
875,25	1516,32
875,42	1520,00
875,59	1532,90
875,76	1529,01
875,93	1517,54
876,10	1559,53
876,27	1467,78
876,44	1589,22
876,61	1552,97
876,78	1500,96
876,95	1519,80
877,12	1493,17
877,29	1498,91
877,46	1499,11
877,62	1504,23
877,79	1462,66
877,96	1507,71
878,13	1480,27
878,30	1511,40
878,47	1540,28
878,64	1518,36
878,81	1513,04
878,98	1498,50
879,15	1547,85
879,32	1556,25
879,49	1533,93
879,66	1538,84
879,83	1509,35
880,00	1577,76
880,17	1470,03
880,34	1510,79
880,51	1497,88
880,67	1563,21
880,84	1437,26
881,01	1509,76
881,18	1562,19
881,35	1478,02
881,52	1599,87
881,69	1479,45
881,86	1568,54
882,03	1511,40
882,20	1534,13
882,37	1513,04
882,54	1555,23
882,70	1515,50
882,87	1512,02
883,04	1545,19
883,21	1527,38
883,38	1468,80
883,55	1512,83
883,72	1488,46
883,89	1471,67
884,06	1464,30
884,23	1451,40
884,39	1454,06
884,56	1513,45
884,73	1544,78
884,90	1515,50
885,07	1560,96
885,24	1481,30
885,41	1558,09
885,58	1509,35
885,74	1483,55
885,91	1509,15
886,08	1527,58
886,25	1483,96
886,42	1512,83
886,59	1534,54
886,76	1470,85
886,93	1441,57
887,09	1558,50
887,26	1653,94
887,43	1501,16
887,60	1499,93
887,77	1507,71
887,94	1544,99
888,10	1618,10
888,27	1559,73
888,44	1533,31
888,61	1447,71
888,78	1487,85
888,95	1518,36
889,12	1482,73
889,28	1536,39
889,45	1492,76
889,62	1495,02
889,79	1516,11
889,96	1505,26
890,13	1511,20
890,29	1494,61
890,46	1584,31
890,63	1538,23
890,80	1519,59
890,97	1498,50
891,13	1471,26
891,30	1542,33
891,47	1634,69
891,64	1499,11
891,81	1469,21
891,98	1463,68
892,14	1508,74
892,31	1455,49
892,48	1512,02
892,65	1476,38
892,82	1497,68
892,98	1435,42
893,15	1522,87
893,32	1534,54
>>>>>End Processed Spectral Data<<<<<
