SpectraSuite Datei
++++++++++++++++++++++++++++++++++++
Datum: Thu Mar 09 10:10:51 CET 2017
Benutzer: Admin
Dark-Spektrum vorhanden: Nein
Referenz-Spektrum vorhanden: Nein
Zahl der probierten Teilspektren: 1
Spektrometer: USB4F05832
Integrationszeit (usec): 100000 (USB4F05832)
Spektren Durchschnitt berechnet: 10 (USB4F05832)
Boxcar Glättung: 0 (USB4F05832)
Dunkelstromkorrektur: Nein (USB4F05832)
Puls/Lampe aktiviert: Nein (USB4F05832)
Correct for Detector Non-linearity: Nein (USB4F05832)
Streulichtkorrektur: Nein (USB4F05832)
Anzahl Pixel in verarbeitetem Spektrum: 3648
>>>>>Begin Processed Spectral Data<<<<<
177,54	1330,16
177,75	1330,16
177,97	1330,16
178,19	1327,49
178,41	1317,05
178,63	1504,85
178,85	1394,67
179,07	1437,88
179,29	1462,45
179,51	1389,96
179,73	1473,51
179,95	1451,60
180,17	1433,58
180,39	1505,67
180,61	1472,69
180,83	1528,19
181,05	1431,94
181,27	1472,69
181,49	1456,11
181,71	1452,62
181,92	1592,30
182,14	1477,40
182,36	1438,08
182,58	1496,45
182,80	1441,16
183,02	1548,26
183,24	1510,99
183,46	1464,50
183,68	1452,42
183,90	1515,70
184,12	1449,35
184,34	1517,14
184,56	1470,24
184,78	1419,45
185,00	1477,20
185,21	1522,46
185,43	1431,12
185,65	1491,33
185,87	1453,24
186,09	1511,61
186,31	1463,27
186,53	1473,92
186,75	1487,03
186,97	1512,83
187,19	1543,55
187,41	1440,34
187,63	1509,97
187,84	1433,37
188,06	1475,56
188,28	1461,02
188,50	1488,46
188,72	1538,84
188,94	1527,78
189,16	1441,57
189,38	1469,62
189,60	1469,01
189,82	1458,15
190,03	1506,69
190,25	1455,70
190,47	1534,13
190,69	1477,81
190,91	1427,23
191,13	1473,72
191,35	1545,81
191,57	1472,49
191,79	1470,03
192,01	1499,52
192,22	1526,76
192,44	1471,88
192,66	1476,18
192,88	1484,16
193,10	1479,86
193,32	1473,92
193,54	1548,47
193,76	1537,41
193,98	1441,97
194,19	1518,57
194,41	1468,60
194,63	1443,61
194,85	1477,20
195,07	1535,36
195,29	1414,94
195,51	1516,52
195,73	1483,55
195,94	1467,37
196,16	1477,00
196,38	1561,99
196,60	1410,64
196,82	1435,63
197,04	1478,02
197,26	1454,26
197,48	1444,23
197,69	1463,27
197,91	1444,43
198,13	1474,74
198,35	1502,39
198,57	1471,06
198,79	1532,50
199,01	1514,47
199,22	1469,42
199,44	1533,93
199,66	1477,40
199,88	1490,92
200,10	1485,60
200,32	1502,59
200,54	1525,33
200,75	1555,02
200,97	1440,95
201,19	1536,59
201,41	1505,26
201,63	1468,39
201,85	1443,61
202,06	1478,02
202,28	1471,47
202,50	1489,49
202,72	1400,40
202,94	1428,05
203,16	1451,81
203,38	1443,00
203,59	1467,78
203,81	1505,67
204,03	1399,38
204,25	1499,11
204,47	1517,95
204,69	1491,95
204,90	1462,66
205,12	1491,33
205,34	1477,00
205,56	1498,29
205,78	1441,77
206,00	1554,20
206,21	1520,00
206,43	1474,54
206,65	1491,54
206,87	1485,60
207,09	1473,31
207,30	1436,45
207,52	1498,29
207,74	1488,46
207,96	1453,85
208,18	1481,30
208,40	1461,02
208,61	1463,07
208,83	1482,11
209,05	1422,72
209,27	1415,56
209,49	1525,12
209,70	1507,92
209,92	1503,82
210,14	1437,06
210,36	1463,27
210,58	1485,60
210,79	1512,83
211,01	1409,62
211,23	1520,00
211,45	1544,99
211,67	1516,93
211,88	1426,21
212,10	1536,59
212,32	1459,59
212,54	1475,97
212,76	1472,28
212,97	1437,26
213,19	1424,77
213,41	1522,46
213,63	1440,13
213,85	1471,88
214,06	1434,60
214,28	1526,15
214,50	1471,06
214,72	1482,73
214,94	1483,34
215,15	1437,47
215,37	1466,55
215,59	1469,83
215,81	1512,63
216,02	1478,02
216,24	1500,34
216,46	1426,00
216,68	1481,30
216,90	1472,28
217,11	1517,54
217,33	1453,65
217,55	1546,22
217,77	1513,65
217,98	1517,95
218,20	1490,92
218,42	1518,98
218,64	1484,98
218,85	1534,34
219,07	1492,56
219,29	1480,07
219,51	1531,27
219,73	1490,92
219,94	1446,69
220,16	1531,88
220,38	1491,74
220,60	1479,86
220,81	1440,75
221,03	1412,07
221,25	1529,42
221,47	1439,93
221,68	1463,89
221,90	1489,28
222,12	1486,21
222,34	1495,22
222,55	1508,74
222,77	1551,95
222,99	1460,20
223,21	1510,99
223,42	1530,45
223,64	1510,79
223,86	1475,97
224,08	1472,28
224,29	1503,82
224,51	1474,33
224,73	1482,52
224,94	1474,33
225,16	1474,74
225,38	1473,51
225,60	1487,64
225,81	1441,16
226,03	1444,43
226,25	1421,29
226,47	1510,99
226,68	1498,09
226,90	1486,42
227,12	1515,09
227,33	1481,50
227,55	1472,28
227,77	1427,02
227,99	1550,11
228,20	1473,92
228,42	1486,01
228,64	1506,28
228,86	1478,43
229,07	1511,40
229,29	1423,34
229,51	1406,95
229,72	1558,09
229,94	1474,33
230,16	1495,63
230,38	1474,95
230,59	1463,68
230,81	1533,52
231,03	1489,08
231,24	1442,79
231,46	1453,85
231,68	1458,36
231,89	1472,69
232,11	1468,60
232,33	1539,87
232,55	1479,66
232,76	1487,85
232,98	1457,13
233,20	1446,69
233,41	1446,69
233,63	1458,56
233,85	1464,71
234,06	1465,32
234,28	1492,97
234,50	1427,02
234,71	1478,02
234,93	1534,95
235,15	1490,10
235,37	1411,46
235,58	1512,02
235,80	1427,43
236,02	1438,70
236,23	1484,37
236,45	1462,66
236,67	1496,86
236,88	1485,19
237,10	1519,59
237,32	1536,80
237,53	1486,42
237,75	1485,19
237,97	1414,12
238,18	1438,08
238,40	1497,88
238,62	1487,23
238,83	1467,98
239,05	1452,01
239,27	1456,72
239,48	1441,57
239,70	1471,47
239,92	1532,50
240,13	1533,72
240,35	1471,47
240,57	1502,19
240,78	1513,86
241,00	1433,99
241,22	1473,31
241,43	1540,48
241,65	1471,26
241,87	1535,57
242,08	1596,19
242,30	1436,04
242,52	1477,20
242,73	1489,90
242,95	1454,88
243,16	1503,21
243,38	1563,42
243,60	1486,83
243,81	1500,75
244,03	1547,24
244,25	1434,60
244,46	1465,53
244,68	1453,85
244,90	1491,33
245,11	1454,06
245,33	1468,39
245,55	1489,90
245,76	1463,68
245,98	1465,12
246,19	1554,82
246,41	1562,60
246,63	1494,20
246,84	1520,00
247,06	1479,66
247,28	1488,87
247,49	1489,90
247,71	1438,70
247,92	1481,71
248,14	1515,09
248,36	1493,79
248,57	1496,25
248,79	1499,52
249,01	1463,89
249,22	1472,49
249,44	1508,33
249,65	1466,14
249,87	1492,56
250,09	1493,38
250,30	1484,16
250,52	1469,62
250,73	1501,98
250,95	1442,79
251,17	1478,02
251,38	1450,37
251,60	1454,26
251,81	1527,78
252,03	1556,66
252,25	1425,18
252,46	1451,60
252,68	1534,13
252,89	1476,38
253,11	1483,96
253,33	1493,58
253,54	1413,10
253,76	1496,86
253,97	1514,88
254,19	1528,40
254,41	1469,62
254,62	1541,71
254,84	1517,75
255,05	1485,60
255,27	1532,70
255,49	1526,35
255,70	1512,22
255,92	1470,24
256,13	1460,00
256,35	1502,80
256,56	1526,97
256,78	1497,07
257,00	1506,90
257,21	1463,68
257,43	1427,84
257,64	1458,15
257,86	1518,16
258,08	1508,33
258,29	1549,90
258,51	1443,20
258,72	1500,75
258,94	1523,07
259,15	1476,59
259,37	1466,35
259,59	1439,93
259,80	1507,30
260,02	1442,18
260,23	1500,55
260,45	1441,97
260,66	1484,57
260,88	1490,10
261,09	1491,13
261,31	1464,09
261,53	1502,59
261,74	1528,81
261,96	1401,63
262,17	1447,30
262,39	1509,35
262,60	1475,15
262,82	1458,97
263,03	1468,39
263,25	1510,99
263,46	1473,10
263,68	1495,63
263,90	1468,39
264,11	1465,94
264,33	1553,79
264,54	1486,42
264,76	1480,68
264,97	1526,35
265,19	1432,35
265,40	1513,04
265,62	1467,16
265,83	1522,46
266,05	1489,28
266,26	1483,55
266,48	1548,67
266,70	1537,41
266,91	1401,83
267,13	1504,64
267,34	1444,64
267,56	1496,25
267,77	1466,55
267,99	1474,54
268,20	1512,63
268,42	1508,53
268,63	1411,66
268,85	1589,02
269,06	1512,83
269,28	1498,91
269,49	1491,95
269,71	1505,67
269,92	1455,29
270,14	1457,33
270,35	1493,99
270,57	1476,79
270,78	1503,21
271,00	1463,48
271,21	1567,31
271,43	1465,12
271,64	1465,12
271,86	1523,89
272,07	1425,59
272,29	1544,37
272,50	1470,44
272,72	1551,13
272,93	1517,54
273,15	1547,04
273,36	1522,26
273,58	1520,00
273,79	1487,03
274,01	1472,49
274,22	1440,95
274,44	1480,68
274,65	1514,06
274,87	1499,32
275,08	1490,92
275,30	1507,30
275,51	1566,49
275,73	1568,33
275,94	1441,57
276,16	1468,19
276,37	1474,95
276,59	1486,21
276,80	1474,95
277,02	1498,91
277,23	1449,96
277,45	1498,29
277,66	1399,58
277,88	1528,81
278,09	1554,41
278,30	1502,39
278,52	1442,79
278,73	1580,62
278,95	1482,73
279,16	1543,14
279,38	1493,99
279,59	1483,34
279,81	1473,51
280,02	1476,59
280,24	1456,72
280,45	1511,61
280,67	1553,59
280,88	1549,70
281,09	1442,18
281,31	1454,26
281,52	1467,16
281,74	1554,82
281,95	1483,55
282,17	1496,04
282,38	1511,61
282,60	1521,64
282,81	1532,50
283,02	1472,69
283,24	1472,49
283,45	1533,72
283,67	1444,64
283,88	1517,95
284,10	1478,84
284,31	1522,26
284,53	1478,22
284,74	1499,93
284,95	1466,96
285,17	1497,07
285,38	1468,60
285,60	1454,47
285,81	1477,20
286,03	1506,69
286,24	1529,42
286,45	1530,24
286,67	1493,38
286,88	1499,93
287,10	1524,71
287,31	1455,49
287,53	1496,04
287,74	1512,83
287,95	1457,95
288,17	1526,56
288,38	1491,33
288,60	1461,02
288,81	1464,09
289,02	1461,84
289,24	1536,59
289,45	1464,50
289,67	1515,91
289,88	1519,59
290,10	1495,43
290,31	1501,98
290,52	1486,42
290,74	1505,67
290,95	1503,21
291,17	1503,21
291,38	1465,94
291,59	1460,82
291,81	1462,04
292,02	1484,98
292,24	1466,35
292,45	1510,99
292,66	1470,85
292,88	1525,33
293,09	1505,87
293,31	1497,68
293,52	1450,99
293,73	1433,17
293,95	1507,10
294,16	1524,10
294,37	1508,12
294,59	1523,07
294,80	1573,66
295,02	1480,48
295,23	1432,35
295,44	1517,34
295,66	1466,14
295,87	1521,85
296,09	1495,22
296,30	1504,03
296,51	1455,08
296,73	1470,65
296,94	1455,29
297,15	1465,73
297,37	1454,06
297,58	1483,34
297,79	1473,10
298,01	1511,81
298,22	1533,72
298,44	1450,37
298,65	1483,75
298,86	1510,79
299,08	1417,40
299,29	1485,19
299,50	1472,08
299,72	1480,68
299,93	1506,28
300,14	1523,07
300,36	1431,12
300,57	1457,95
300,79	1456,52
301,00	1513,04
301,21	1426,21
301,43	1455,70
301,64	1473,10
301,85	1484,57
302,07	1547,24
302,28	1452,21
302,49	1563,83
302,71	1462,66
302,92	1525,53
303,13	1540,69
303,35	1487,85
303,56	1533,11
303,77	1437,88
303,99	1510,17
304,20	1489,90
304,41	1448,94
304,63	1461,23
304,84	1504,85
305,05	1505,67
305,27	1528,40
305,48	1518,36
305,69	1483,14
305,91	1512,02
306,12	1478,43
306,33	1492,35
306,55	1464,30
306,76	1470,44
306,97	1481,71
307,19	1500,14
307,40	1511,40
307,61	1528,81
307,82	1473,10
308,04	1523,28
308,25	1531,68
308,46	1484,78
308,68	1488,26
308,89	1534,75
309,10	1499,73
309,32	1476,79
309,53	1475,36
309,74	1506,69
309,96	1458,77
310,17	1472,69
310,38	1442,79
310,59	1511,61
310,81	1504,03
311,02	1513,24
311,23	1506,08
311,45	1492,76
311,66	1500,14
311,87	1476,59
312,09	1533,72
312,30	1488,46
312,51	1507,30
312,72	1493,38
312,94	1512,83
313,15	1496,86
313,36	1526,76
313,58	1442,79
313,79	1546,22
314,00	1469,21
314,21	1441,16
314,43	1466,35
314,64	1472,90
314,85	1467,37
315,06	1460,61
315,28	1549,90
315,49	1522,26
315,70	1475,77
315,92	1516,73
316,13	1592,71
316,34	1528,40
316,55	1518,36
316,77	1468,19
316,98	1561,78
317,19	1478,43
317,40	1429,69
317,62	1453,85
317,83	1572,84
318,04	1494,61
318,25	1444,23
318,47	1473,51
318,68	1483,96
318,89	1513,86
319,11	1492,15
319,32	1491,95
319,53	1542,33
319,74	1516,93
319,96	1515,91
320,17	1479,66
320,38	1425,80
320,59	1560,96
320,81	1520,41
321,02	1489,90
321,23	1463,27
321,44	1529,22
321,65	1480,68
321,87	1510,58
322,08	1563,01
322,29	1506,08
322,50	1447,30
322,72	1491,33
322,93	1495,22
323,14	1463,68
323,35	1468,60
323,57	1511,61
323,78	1507,10
323,99	1480,68
324,20	1521,03
324,41	1466,14
324,63	1511,20
324,84	1487,03
325,05	1497,47
325,26	1504,23
325,48	1486,83
325,69	1499,32
325,90	1457,54
326,11	1488,26
326,32	1503,41
326,54	1514,88
326,75	1474,95
326,96	1466,96
327,17	1525,74
327,39	1538,84
327,60	1489,49
327,81	1474,54
328,02	1491,74
328,23	1461,64
328,45	1512,02
328,66	1464,30
328,87	1509,97
329,08	1538,23
329,29	1481,71
329,51	1492,76
329,72	1474,95
329,93	1510,79
330,14	1460,82
330,35	1485,19
330,56	1460,20
330,78	1511,20
330,99	1497,47
331,20	1527,17
331,41	1501,98
331,62	1455,29
331,84	1470,24
332,05	1474,33
332,26	1493,79
332,47	1505,46
332,68	1454,06
332,90	1486,21
333,11	1418,01
333,32	1562,80
333,53	1512,83
333,74	1428,25
333,95	1544,99
334,17	1512,22
334,38	1487,23
334,59	1439,93
334,80	1469,83
335,01	1530,45
335,22	1495,43
335,44	1482,93
335,65	1456,52
335,86	1525,33
336,07	1482,11
336,28	1474,13
336,49	1467,98
336,71	1447,71
336,92	1544,17
337,13	1478,84
337,34	1484,57
337,55	1590,66
337,76	1492,76
337,97	1525,12
338,19	1506,08
338,40	1466,14
338,61	1518,98
338,82	1493,58
339,03	1512,63
339,24	1452,83
339,45	1453,65
339,67	1503,41
339,88	1523,07
340,09	1513,24
340,30	1474,13
340,51	1574,27
340,72	1497,68
340,93	1436,45
341,15	1495,43
341,36	1548,47
341,57	1452,42
341,78	1486,21
341,99	1515,50
342,20	1526,35
342,41	1465,53
342,62	1574,27
342,84	1447,91
343,05	1538,02
343,26	1476,79
343,47	1559,73
343,68	1426,00
343,89	1513,24
344,10	1499,93
344,31	1522,05
344,53	1449,14
344,74	1483,55
344,95	1458,56
345,16	1490,92
345,37	1532,50
345,58	1511,20
345,79	1457,54
346,00	1436,45
346,21	1465,53
346,42	1464,30
346,64	1469,83
346,85	1510,99
347,06	1510,38
347,27	1479,04
347,48	1560,55
347,69	1525,74
347,90	1495,22
348,11	1524,92
348,32	1462,45
348,53	1484,78
348,75	1458,97
348,96	1502,19
349,17	1435,63
349,38	1477,40
349,59	1482,73
349,80	1472,28
350,01	1575,71
350,22	1557,07
350,43	1492,56
350,64	1528,81
350,85	1563,42
351,06	1472,28
351,28	1482,73
351,49	1470,65
351,70	1509,15
351,91	1477,40
352,12	1483,96
352,33	1521,03
352,54	1452,21
352,75	1483,34
352,96	1468,80
353,17	1527,99
353,38	1520,62
353,59	1548,88
353,80	1578,57
354,01	1541,92
354,22	1477,81
354,44	1483,75
354,65	1570,18
354,86	1489,69
355,07	1486,62
355,28	1456,11
355,49	1487,64
355,70	1455,90
355,91	1523,69
356,12	1448,12
356,33	1471,26
356,54	1540,69
356,75	1490,10
356,96	1503,82
357,17	1555,64
357,38	1523,48
357,59	1492,97
357,80	1538,84
358,01	1525,74
358,22	1569,36
358,43	1541,30
358,64	1530,04
358,85	1491,33
359,07	1598,03
359,28	1497,88
359,49	1532,50
359,70	1478,63
359,91	1517,34
360,12	1486,21
360,33	1556,46
360,54	1486,83
360,75	1480,89
360,96	1494,61
361,17	1437,06
361,38	1484,78
361,59	1573,66
361,80	1462,04
362,01	1531,06
362,22	1530,45
362,43	1474,74
362,64	1538,23
362,85	1551,54
363,06	1647,39
363,27	1639,40
363,48	1891,50
363,69	2362,54
363,90	2729,94
364,11	3327,54
364,32	3664,02
364,53	3864,31
364,74	3574,52
364,95	3232,31
365,16	2803,26
365,37	2499,34
365,58	2250,10
365,79	2110,23
366,00	1975,47
366,21	1791,15
366,42	1711,90
366,63	1672,99
366,84	1556,66
367,05	1543,14
367,26	1557,48
367,47	1579,60
367,68	1507,71
367,89	1530,86
368,10	1564,85
368,31	1500,14
368,52	1562,80
368,73	1554,41
368,94	1508,33
369,15	1510,58
369,36	1504,23
369,57	1519,39
369,78	1494,40
369,99	1526,97
370,20	1542,94
370,40	1460,41
370,61	1467,78
370,82	1533,52
371,03	1522,26
371,24	1562,40
371,45	1557,07
371,66	1440,95
371,87	1549,70
372,08	1556,87
372,29	1530,04
372,50	1540,89
372,71	1506,08
372,92	1559,53
373,13	1502,59
373,34	1516,73
373,55	1525,74
373,76	1574,89
373,97	1532,70
374,18	1503,00
374,39	1506,90
374,60	1584,31
374,81	1503,00
375,01	1506,28
375,22	1535,98
375,43	1508,53
375,64	1480,07
375,85	1480,27
376,06	1546,22
376,27	1512,22
376,48	1534,75
376,69	1574,27
376,90	1556,25
377,11	1549,70
377,32	1541,51
377,53	1529,83
377,74	1535,57
377,94	1515,91
378,15	1527,58
378,36	1603,56
378,57	1497,07
378,78	1645,54
378,99	1523,48
379,20	1652,10
379,41	1567,11
379,62	1553,18
379,83	1507,51
380,04	1572,84
380,25	1554,61
380,45	1580,83
380,66	1574,89
380,87	1566,90
381,08	1566,29
381,29	1523,89
381,50	1563,21
381,71	1550,93
381,92	1531,47
382,13	1492,56
382,34	1547,85
382,55	1514,47
382,75	1530,45
382,96	1579,80
383,17	1495,84
383,38	1608,88
383,59	1592,91
383,80	1507,51
384,01	1508,33
384,22	1587,79
384,43	1540,48
384,63	1534,54
384,84	1524,71
385,05	1544,17
385,26	1541,92
385,47	1534,34
385,68	1520,00
385,89	1569,56
386,10	1493,17
386,30	1530,65
386,51	1499,32
386,72	1497,68
386,93	1458,36
387,14	1540,89
387,35	1528,19
387,56	1560,55
387,77	1472,69
387,97	1497,68
388,18	1481,30
388,39	1496,66
388,60	1501,37
388,81	1547,85
389,02	1521,44
389,23	1487,23
389,43	1511,81
389,64	1522,05
389,85	1508,33
390,06	1590,25
390,27	1484,57
390,48	1563,62
390,69	1483,34
390,89	1475,97
391,10	1494,40
391,31	1473,51
391,52	1492,56
391,73	1531,06
391,94	1467,37
392,14	1488,05
392,35	1462,25
392,56	1481,91
392,77	1497,07
392,98	1488,87
393,19	1501,37
393,39	1556,46
393,60	1529,42
393,81	1534,54
394,02	1551,75
394,23	1458,56
394,44	1465,12
394,64	1511,20
394,85	1514,06
395,06	1529,01
395,27	1494,81
395,48	1548,88
395,69	1527,58
395,89	1506,28
396,10	1515,70
396,31	1576,73
396,52	1446,69
396,73	1535,36
396,93	1471,88
397,14	1554,00
397,35	1544,58
397,56	1548,06
397,77	1474,95
397,97	1488,26
398,18	1513,24
398,39	1535,57
398,60	1503,62
398,81	1493,99
399,01	1465,32
399,22	1513,45
399,43	1551,54
399,64	1572,02
399,85	1536,39
400,05	1491,95
400,26	1458,36
400,47	1496,86
400,68	1483,34
400,89	1621,79
401,09	1469,21
401,30	1501,78
401,51	1555,64
401,72	1513,86
401,93	1641,86
402,13	1521,85
402,34	1586,15
402,55	1612,16
402,76	1706,37
402,96	2295,98
403,17	3641,70
403,38	5614,10
403,59	7331,11
403,80	9217,29
404,00	9429,67
404,21	8313,93
404,42	6718,36
404,63	4824,40
404,83	3327,74
405,04	2480,50
405,25	2134,60
405,46	1900,92
405,66	1718,25
405,87	1664,79
406,08	1635,71
406,29	1752,45
406,49	1841,12
406,70	2070,70
406,91	2058,62
407,12	2223,68
407,32	2160,40
407,53	2030,56
407,74	1836,82
407,95	1739,95
408,15	1600,90
408,36	1555,02
408,57	1603,97
408,78	1553,79
408,98	1567,11
409,19	1580,62
409,40	1522,05
409,61	1540,48
409,81	1550,52
410,02	1538,64
410,23	1555,43
410,44	1584,31
410,64	1495,22
410,85	1549,90
411,06	1527,99
411,26	1620,76
411,47	1558,50
411,68	1615,44
411,89	1548,88
412,09	1575,30
412,30	1577,96
412,51	1584,10
412,72	1549,70
412,92	1562,80
413,13	1580,21
413,34	1553,38
413,54	1557,89
413,75	1566,08
413,96	1553,18
414,17	1554,41
414,37	1591,48
414,58	1632,64
414,79	1597,01
414,99	1615,44
415,20	1597,01
415,41	1537,21
415,61	1573,66
415,82	1599,26
416,03	1609,09
416,24	1580,01
416,44	1606,63
416,65	1604,17
416,86	1609,50
417,06	1527,38
417,27	1566,70
417,48	1561,99
417,68	1555,43
417,89	1597,62
418,10	1560,14
418,30	1606,63
418,51	1615,85
418,72	1578,78
418,92	1602,95
419,13	1612,37
419,34	1572,23
419,55	1610,11
419,75	2044,49
419,96	1581,44
420,17	1638,99
420,37	1584,72
420,58	1623,83
420,79	1558,71
420,99	1580,21
421,20	1662,34
421,41	1588,61
421,61	1599,26
421,82	1573,45
422,03	1589,84
422,23	1570,18
422,44	1580,83
422,65	1653,33
422,85	1563,42
423,06	1610,93
423,26	1622,40
423,47	1615,23
423,68	1631,00
423,88	1585,54
424,09	1640,01
424,30	1624,45
424,50	1567,92
424,71	1577,55
424,92	1665,82
425,12	1709,03
425,33	1665,61
425,54	1611,34
425,74	1628,34
425,95	1673,40
426,15	1576,32
426,36	1591,27
426,57	1660,49
426,77	1662,75
426,98	1600,49
427,19	1593,11
427,39	1610,93
427,60	1685,68
427,81	1629,36
428,01	1625,68
428,22	1641,65
428,42	1645,13
428,63	1621,38
428,84	1613,39
429,04	1661,93
429,25	1655,37
429,45	1610,52
429,66	1740,36
429,87	1662,13
430,07	1756,54
430,28	1710,05
430,49	1699,40
430,69	1676,26
430,90	1672,17
431,10	1653,12
431,31	1745,69
431,52	1724,80
431,72	1672,17
431,93	1708,21
432,13	1759,41
432,34	1737,29
432,55	1734,42
432,75	1761,05
432,96	1810,81
433,16	1850,34
433,37	1914,24
433,58	1960,11
433,78	2175,35
433,99	2836,85
434,19	5509,65
434,40	9978,32
434,60	15170,74
434,81	19701,87
435,02	22311,19
435,22	22238,48
435,43	17973,18
435,63	13362,59
435,84	9293,89
436,05	6106,22
436,25	4032,04
436,46	3258,11
436,66	2669,73
436,87	2354,96
437,07	2067,01
437,28	1962,57
437,48	1837,64
437,69	1733,61
437,90	1757,16
438,10	1754,49
438,31	1791,77
438,51	1735,45
438,72	1753,88
438,92	1698,18
439,13	1761,66
439,34	1728,28
439,54	1769,24
439,75	1708,83
439,95	1733,20
440,16	1693,06
440,36	1782,76
440,57	1776,41
440,77	1772,31
440,98	1711,08
441,18	1694,90
441,39	1740,77
441,60	1705,96
441,80	1720,91
442,01	1692,03
442,21	1713,74
442,42	1725,21
442,62	1735,04
442,83	1649,02
443,03	1731,35
443,24	1752,65
443,44	1705,14
443,65	1704,11
443,85	1702,48
444,06	1693,06
444,26	1725,82
444,47	1658,04
444,67	1689,37
444,88	1729,71
445,09	1703,30
445,29	1717,22
445,50	1788,08
445,70	1649,02
445,91	1711,90
446,11	1669,71
446,32	1726,85
446,52	1719,68
446,73	1693,67
446,93	1690,39
447,14	1717,84
447,34	1703,09
447,55	1662,13
447,75	1696,74
447,96	1719,47
448,16	1762,48
448,37	1709,64
448,57	1698,38
448,78	1709,44
448,98	1690,39
449,19	1753,06
449,39	1708,83
449,60	1708,21
449,80	1696,13
450,01	1694,69
450,21	1712,72
450,42	1714,56
450,62	1692,24
450,83	1690,39
451,03	1727,05
451,23	1688,55
451,44	1743,85
451,64	1689,57
451,85	1739,75
452,05	1727,67
452,26	1716,40
452,46	1693,67
452,67	1729,51
452,87	1663,16
453,08	1725,82
453,28	1684,04
453,49	1704,73
453,69	1722,75
453,90	1713,13
454,10	1744,05
454,31	1732,17
454,51	1700,02
454,71	1686,09
454,92	1701,66
455,12	1640,01
455,33	1673,40
455,53	1782,14
455,74	1692,24
455,94	1711,69
456,15	1747,74
456,35	1765,76
456,55	1680,36
456,76	1708,01
456,96	1725,82
457,17	1628,95
457,37	1733,61
457,58	1729,51
457,78	1702,48
457,99	1733,61
458,19	1710,87
458,39	1703,50
458,60	1747,94
458,80	1690,19
459,01	1692,65
459,21	1661,11
459,42	1714,35
459,62	1778,25
459,82	1721,93
460,03	1703,30
460,23	1748,15
460,44	1720,91
460,64	1704,52
460,85	1766,17
461,05	1670,53
461,25	1677,49
461,46	1707,19
461,66	1697,36
461,87	1690,19
462,07	1748,35
462,27	1729,30
462,48	1727,26
462,68	1716,61
462,89	1644,93
463,09	2074,18
463,29	1733,61
463,50	1734,22
463,70	1682,61
463,91	1721,52
464,11	1750,19
464,31	1739,54
464,52	1772,31
464,72	1805,08
464,93	1661,11
465,13	1746,51
465,33	1713,33
465,54	1695,31
465,74	1761,25
465,95	1730,74
466,15	1699,61
466,35	1740,98
466,56	1745,28
466,76	1785,83
466,96	1734,02
467,17	1787,67
467,37	1753,27
467,58	1736,06
467,78	1718,86
467,98	1712,31
468,19	1656,19
468,39	1705,75
468,59	1720,29
468,80	1762,28
469,00	1625,68
469,21	1687,94
469,41	1676,88
469,61	1715,58
469,82	1697,97
470,02	1768,42
470,22	1693,87
470,43	1721,32
470,63	1724,59
470,83	1715,38
471,04	1655,37
471,24	1721,11
471,45	1763,71
471,65	1822,08
471,85	1730,74
472,06	1756,34
472,26	1766,17
472,46	1719,88
472,67	1843,58
472,87	1709,03
473,07	1704,32
473,28	1722,14
473,48	1759,41
473,68	1829,86
473,89	1738,73
474,09	1783,78
474,29	1693,87
474,50	1752,24
474,70	1690,19
474,90	1810,81
475,11	1712,72
475,31	1778,87
475,51	1725,82
475,72	1753,27
475,92	1718,04
476,12	1727,46
476,33	1799,55
476,53	1751,63
476,73	1701,66
476,93	1767,60
477,14	1738,11
477,34	1804,26
477,54	1810,61
477,75	1738,32
477,95	1795,66
478,15	1833,96
478,36	1866,93
478,56	1818,19
478,76	1829,25
478,97	1868,16
479,17	1876,76
479,37	1902,77
479,57	1932,87
479,78	1975,68
479,98	2000,46
480,18	2097,73
480,39	2101,01
480,59	2145,25
480,79	2222,25
480,99	2278,37
481,20	2340,62
481,40	2520,84
481,60	2527,19
481,81	2677,72
482,01	2754,31
482,21	2845,65
482,41	3067,04
482,62	3225,35
482,82	3309,52
483,02	3607,70
483,23	3634,53
483,43	3913,87
483,63	3972,04
483,83	4153,28
484,04	4473,58
484,24	4528,67
484,44	4698,25
484,64	4918,20
484,85	5151,46
485,05	5352,98
485,25	5518,25
485,45	5611,43
485,66	5801,08
485,86	5746,60
486,06	5795,75
486,26	5815,21
486,47	5812,34
486,67	5716,70
486,87	5768,72
487,07	5644,20
487,28	5440,84
487,48	5435,72
487,68	5439,61
487,88	5269,01
488,09	5172,15
488,29	5043,94
488,49	5012,81
488,69	4866,79
488,90	4755,38
489,10	4641,72
489,30	4506,15
489,50	4464,78
489,71	4476,04
489,91	4454,54
490,11	4441,02
490,31	4425,46
490,52	4395,35
490,72	4367,09
490,92	4434,06
491,12	4329,00
491,32	4203,25
491,53	4158,40
491,73	4061,94
491,93	3963,64
492,13	3953,40
492,33	3834,21
492,54	3800,21
492,74	3796,52
492,94	3682,04
493,14	3671,19
493,35	3590,50
493,55	3530,90
493,75	3521,89
493,95	3506,74
494,15	3354,98
494,36	3425,84
494,56	3292,93
494,76	3252,38
494,96	3263,44
495,16	3224,12
495,37	3244,80
495,57	3058,85
495,77	3086,70
495,97	3023,83
496,17	2994,54
496,37	2978,57
496,58	2967,92
496,78	2863,27
496,98	2828,86
497,18	2877,60
497,38	2827,84
497,59	2834,80
497,79	2650,48
497,99	2664,20
498,19	2587,61
498,39	2632,25
498,59	2504,26
498,80	2532,72
499,00	2465,14
499,20	2386,50
499,40	2354,75
499,60	2364,99
499,80	2355,57
500,01	2283,28
500,21	2235,97
500,41	2233,51
500,61	2217,95
500,81	2156,72
501,01	2152,42
501,22	2108,59
501,42	2053,70
501,62	2079,71
501,82	2080,74
502,02	2021,75
502,22	1977,31
502,42	1992,47
502,63	2046,74
502,83	1985,51
503,03	1929,19
503,23	1913,01
503,43	1870,21
503,63	1945,16
503,83	1921,40
504,04	1842,97
504,24	1852,59
504,44	1819,83
504,64	1817,37
504,84	1870,82
505,04	1800,78
505,24	1764,73
505,44	1807,74
505,65	1791,15
505,85	1863,45
506,05	1763,92
506,25	1762,48
506,45	1792,79
506,65	1718,45
506,85	1722,14
507,05	1797,50
507,26	1755,72
507,46	1810,61
507,66	1715,17
507,86	1726,44
508,06	1776,20
508,26	1743,23
508,46	1791,15
508,66	1755,11
508,86	1795,45
509,06	1743,85
509,27	1788,70
509,47	1757,36
509,67	1728,28
509,87	1764,33
510,07	1752,65
510,27	1742,41
510,47	1792,59
510,67	1789,31
510,87	1772,11
511,07	1763,92
511,28	1734,83
511,48	1798,12
511,68	1753,68
511,88	1706,57
512,08	1722,96
512,28	1707,19
512,48	1769,65
512,68	1705,14
512,88	1741,18
513,08	1798,73
513,28	1845,02
513,48	1753,88
513,68	1751,22
513,89	1756,54
514,09	1745,48
514,29	1686,50
514,49	1698,79
514,69	1753,27
514,89	1702,68
515,09	1710,26
515,29	1752,04
515,49	1718,86
515,69	1763,92
515,89	1760,84
516,09	1711,49
516,29	1640,63
516,49	1645,13
516,69	1700,22
516,89	1662,75
517,09	1697,15
517,29	1697,56
517,50	1616,46
517,70	1630,18
517,90	1708,21
518,10	1671,14
518,30	1657,42
518,50	1731,97
518,70	1695,31
518,90	1659,06
519,10	1693,26
519,30	1621,38
519,50	1651,07
519,70	1682,82
519,90	1697,15
520,10	1700,84
520,30	1684,04
520,50	1641,65
520,70	1657,83
520,90	1744,25
521,10	1652,10
521,30	1662,95
521,50	1706,37
521,70	1711,90
521,90	1708,21
522,10	1719,06
522,30	1684,04
522,50	1653,33
522,70	1665,82
522,90	1659,06
523,10	1700,02
523,30	1659,88
523,50	1694,90
523,70	1663,16
523,90	1633,87
524,10	1645,34
524,30	1621,99
524,50	1675,44
524,70	1717,63
524,90	1682,41
525,10	1720,91
525,30	1671,35
525,50	1674,42
525,70	1630,59
525,90	1682,20
526,10	1700,02
526,30	1691,62
526,50	1719,06
526,70	1707,80
526,90	1686,50
527,10	1697,56
527,30	1685,07
527,50	1738,52
527,70	1708,01
527,90	1709,03
528,10	1704,52
528,30	1700,22
528,50	1714,15
528,70	1693,47
528,90	1698,38
529,10	1708,83
529,30	1688,14
529,50	1756,54
529,70	1725,62
529,90	1752,45
530,10	1757,98
530,29	1809,99
530,49	1786,44
530,69	1776,61
530,89	1762,69
531,09	1807,95
531,29	1890,68
531,49	1854,23
531,69	2022,16
531,89	2111,87
532,09	2227,58
532,29	2350,04
532,49	2447,32
532,69	2522,28
532,89	2477,02
533,09	2440,97
533,29	2355,37
533,49	2276,93
533,68	2260,96
533,88	2227,37
534,08	2182,32
534,28	2176,38
534,48	2269,56
534,68	2233,72
534,88	2355,78
535,08	2430,12
535,28	2570,61
535,48	2624,06
535,68	2788,92
535,88	3005,39
536,08	3175,79
536,27	3409,25
536,47	3737,95
536,67	4052,73
536,87	4230,69
537,07	4450,85
537,27	4711,76
537,47	4760,91
537,67	4837,51
537,87	5094,94
538,07	5367,11
538,27	5656,08
538,46	6196,54
538,66	6718,98
538,86	7388,25
539,06	8475,72
539,26	9433,97
539,46	10607,25
539,66	11964,03
539,86	13786,31
540,06	16021,87
540,25	18501,96
540,45	20836,03
540,65	23027,77
540,85	24448,45
541,05	24927,47
541,25	24307,55
541,45	23264,72
541,65	21891,56
541,85	20588,84
542,04	19551,55
542,24	18828,41
542,44	18408,37
542,64	18109,78
542,84	18110,19
543,04	18075,78
543,24	18110,39
543,43	18259,69
543,63	18495,41
543,83	18474,73
544,03	18298,81
544,23	19104,89
544,43	22037,78
544,63	27108,76
544,82	33019,60
545,02	37835,40
545,22	42141,46
545,42	42344,62
545,62	39338,41
545,82	33451,93
546,02	27741,58
546,21	22660,77
546,41	19657,84
546,61	17545,97
546,81	16404,02
547,01	15091,48
547,21	14402,55
547,40	13518,44
547,60	12796,94
547,80	12131,76
548,00	11521,87
548,20	10932,88
548,40	10352,48
548,59	9881,45
548,79	9504,42
548,99	9132,92
549,19	8688,51
549,39	8256,18
549,59	7984,62
549,78	7502,73
549,98	7225,03
550,18	6759,94
550,38	6552,27
550,58	6228,49
550,77	5945,25
550,97	5670,62
551,17	5417,29
551,37	5266,15
551,57	5014,25
551,76	4809,65
551,96	4617,76
552,16	4486,69
552,36	4284,35
552,56	4173,35
552,75	4015,66
552,95	3851,21
553,15	3798,78
553,35	3710,51
553,55	3423,18
553,74	3361,95
553,94	3128,48
554,14	2994,54
554,34	2921,84
554,54	2847,91
554,73	2686,32
554,93	2691,03
555,13	2613,62
555,33	2513,88
555,53	2382,40
555,72	2446,50
555,92	2451,83
556,12	2344,11
556,32	2322,40
556,51	2264,64
556,71	2239,86
556,91	2240,27
557,11	2191,33
557,30	2167,98
557,50	2161,02
557,70	2088,93
557,90	2068,65
558,10	2064,35
558,29	2047,76
558,49	2049,61
558,69	2029,33
558,89	2011,11
559,08	1965,64
559,28	1897,44
559,48	1903,38
559,68	1945,57
559,87	2000,66
560,07	1913,21
560,27	1918,54
560,47	1887,41
560,66	1880,24
560,86	1901,13
561,06	1915,67
561,25	1859,76
561,45	1860,37
561,65	1883,31
561,85	1865,70
562,04	1889,87
562,24	1883,72
562,44	1858,53
562,64	1893,35
562,83	1956,01
563,03	1906,45
563,23	1820,85
563,42	1789,72
563,62	1748,15
563,82	1781,73
564,02	1756,34
564,21	1783,78
564,41	1737,70
564,61	1760,64
564,80	1755,52
565,00	1824,33
565,20	1756,13
565,40	1842,15
565,59	1687,12
565,79	1743,85
565,99	1801,19
566,18	1789,31
566,38	1776,82
566,58	1739,14
566,78	1733,81
566,97	1780,91
567,17	1777,02
567,37	1703,30
567,56	1764,73
567,76	1803,85
567,96	1738,32
568,15	1730,94
568,35	1780,91
568,55	1766,99
568,74	1703,91
568,94	1709,03
569,14	1693,87
569,33	1690,80
569,53	1670,94
569,73	1670,32
569,92	1710,05
570,12	1675,85
570,32	1641,45
570,52	1623,22
570,71	1623,02
570,91	1698,18
571,11	1618,30
571,30	1654,14
571,50	1661,93
571,70	1702,07
571,89	1684,66
572,09	1684,04
572,28	1608,68
572,48	1583,90
572,68	1599,87
572,87	1643,29
573,07	1666,43
573,27	1719,06
573,46	1719,68
573,66	1656,81
573,86	1682,41
574,05	1684,45
574,25	1704,73
574,45	1720,70
574,64	1774,56
574,84	1923,66
575,04	1882,70
575,23	2136,24
575,43	2685,30
575,62	3664,02
575,82	4636,60
576,02	5319,19
576,21	5938,90
576,41	5940,13
576,61	5414,21
576,80	4550,59
577,00	3648,87
577,19	3130,12
577,39	3091,41
577,59	3540,32
577,78	4268,17
577,98	5024,69
578,18	5662,22
578,37	6155,17
578,57	6042,12
578,76	5560,24
578,96	5045,79
579,16	4753,13
579,35	4722,62
579,55	4761,53
579,74	4901,20
579,94	4639,88
580,14	4529,29
580,33	4185,23
580,53	3982,07
580,72	3981,05
580,92	3998,04
581,12	4080,99
581,31	4331,04
581,51	4583,35
581,70	4693,74
581,90	4886,66
582,10	5009,33
582,29	5102,72
582,49	5170,71
582,68	5210,65
582,88	5238,09
583,07	5311,41
583,27	5166,00
583,47	5253,45
583,66	5099,85
583,86	4982,30
584,05	4956,49
584,25	4809,04
584,44	4830,75
584,64	4683,09
584,84	4530,11
585,03	4545,26
585,23	4495,50
585,42	4587,04
585,62	4862,08
585,81	5403,57
586,01	6230,13
586,20	7096,62
586,40	7815,46
586,60	8288,33
586,79	8351,41
586,99	7857,24
587,18	7161,54
587,38	6245,28
587,57	5453,95
587,77	4879,70
587,96	4500,62
588,16	4118,06
588,35	3891,35
588,55	3789,56
588,75	3692,49
588,94	3583,33
589,14	3494,24
589,33	3487,08
589,53	3593,16
589,72	3548,11
589,92	3638,42
590,11	3762,73
590,31	3895,65
590,50	4006,65
590,70	4133,21
590,89	4247,90
591,09	4449,62
591,28	4748,22
591,48	5021,62
591,67	5506,99
591,87	5978,02
592,06	6559,64
592,26	6938,52
592,45	7086,79
592,65	7117,31
592,84	6674,94
593,04	6199,61
593,23	5590,55
593,43	5061,15
593,62	4590,32
593,82	4237,45
594,01	3879,47
594,21	3715,63
594,40	3530,90
594,60	3322,62
594,79	3297,84
594,99	3218,59
595,18	3230,88
595,38	3202,00
595,57	3166,57
595,77	3230,26
595,96	3219,00
596,16	3173,74
596,35	3130,53
596,55	3127,86
596,74	3207,94
596,94	3245,42
597,13	3391,85
597,33	3452,06
597,52	3631,66
597,72	3819,87
597,91	4178,88
598,11	4333,09
598,30	4559,80
598,50	4814,77
598,69	4893,83
598,88	4949,74
599,08	4965,91
599,27	4804,33
599,47	4508,81
599,66	4352,96
599,86	4120,72
600,05	3882,95
600,25	3686,55
600,44	3426,87
600,64	3274,70
600,83	3088,34
601,02	3035,50
601,22	2860,81
601,41	2803,46
601,61	2687,75
601,80	2643,11
602,00	2581,26
602,19	2511,83
602,38	2498,73
602,58	2482,14
602,77	2518,80
602,97	2520,23
603,16	2571,63
603,36	2611,16
603,55	2667,48
603,74	2616,69
603,94	2603,58
604,13	2684,07
604,33	2710,49
604,52	2728,10
604,72	2763,73
604,91	2792,41
605,10	2838,48
605,30	2872,28
605,49	3011,33
605,69	3064,79
605,88	3093,66
606,07	3259,96
606,27	3365,63
606,46	3414,99
606,66	3546,67
606,85	3616,71
607,04	3807,38
607,24	3987,60
607,43	4291,31
607,63	4485,26
607,82	4869,05
608,01	5246,28
608,21	5658,13
608,40	6445,57
608,60	7012,45
608,79	7984,83
608,98	9249,04
609,18	11277,14
609,37	13904,89
609,57	17591,44
609,76	23357,08
609,95	30582,93
610,15	38515,74
610,34	45345,30
610,53	49952,21
610,73	51356,91
610,92	50064,64
611,11	45498,90
611,31	40123,39
611,50	34096,63
611,70	29365,82
611,89	25525,68
612,08	22816,42
612,28	20681,00
612,47	19209,95
612,66	18013,11
612,86	17158,29
613,05	16225,24
613,24	15800,90
613,44	15423,87
613,63	14961,03
613,82	14440,43
614,02	13906,94
614,21	13027,74
614,41	12286,79
614,60	11474,56
614,79	10331,80
614,99	9491,52
615,18	8634,65
615,37	7933,63
615,57	7278,28
615,76	6691,12
615,95	6188,55
616,15	5801,28
616,34	5622,49
616,53	5270,45
616,73	4979,64
616,92	4690,46
617,11	4475,43
617,30	4360,74
617,50	4165,36
617,69	4179,49
617,88	4094,30
618,08	3982,07
618,27	3966,92
618,46	3810,25
618,66	3783,21
618,85	3794,48
619,04	3836,87
619,24	3980,84
619,43	3983,09
619,62	4004,60
619,82	4031,84
620,01	4087,75
620,20	4114,37
620,39	4156,35
620,59	4174,58
620,78	4188,92
620,97	4205,09
621,17	4170,28
621,36	4128,09
621,55	4151,64
621,74	4197,72
621,94	4187,89
622,13	4435,70
622,32	4481,77
622,52	4549,97
622,71	4651,14
622,90	4684,11
623,09	4653,19
623,29	4675,51
623,48	4675,31
623,67	4701,32
623,86	4710,53
624,06	4661,59
624,25	4797,57
624,44	4870,07
624,64	4894,24
624,83	4838,33
625,02	4906,11
625,21	5012,20
625,41	4974,31
625,60	4971,65
625,79	4894,44
625,98	4925,57
626,18	4963,87
626,37	4935,81
626,56	4825,01
626,75	4813,14
626,95	4731,01
627,14	4676,13
627,33	4633,32
627,52	4543,21
627,72	4541,99
627,91	4609,57
628,10	4510,86
628,29	4576,60
628,49	4545,47
628,68	4709,10
628,87	4786,72
629,06	5108,45
629,25	5295,64
629,45	5758,07
629,64	6478,13
629,83	7051,57
630,02	7549,22
630,22	8033,57
630,41	8182,86
630,60	7977,86
630,79	7393,37
630,98	6722,25
631,18	5861,08
631,37	5148,39
631,56	4473,79
631,75	4013,40
631,94	3561,01
632,14	3186,84
632,33	2985,32
632,52	2797,93
632,71	3044,51
632,90	2552,18
633,10	2489,31
633,29	2398,38
633,48	2334,48
633,67	2280,82
633,86	2298,84
634,06	2236,59
634,25	2242,73
634,44	2222,46
634,63	2166,55
634,82	2125,79
635,02	2119,03
635,21	2095,28
635,40	2066,61
635,59	2063,74
635,78	2070,91
635,97	2045,92
636,17	2014,79
636,36	2047,15
636,55	2015,82
636,74	2022,57
636,93	1976,49
637,12	1984,48
637,32	1957,86
637,51	1906,66
637,70	1982,64
637,89	1944,34
638,08	1917,31
638,27	1973,42
638,47	1926,73
638,66	1943,93
638,85	1839,90
639,04	1881,47
639,23	1927,34
639,42	1922,02
639,62	1960,73
639,81	1924,07
640,00	1936,35
640,19	1913,62
640,38	1895,40
640,57	1900,92
640,76	1920,38
640,95	1856,69
641,15	1843,38
641,34	1929,60
641,53	1892,12
641,72	1949,67
641,91	1943,73
642,10	1849,93
642,29	1947,82
642,49	1875,53
642,68	1859,97
642,87	1916,90
643,06	1917,72
643,25	1938,81
643,44	1874,51
643,63	1894,58
643,82	1883,31
644,01	1890,68
644,21	1892,53
644,40	1968,92
644,59	1898,26
644,78	1912,19
644,97	2041,01
645,16	1918,33
645,35	1883,11
645,54	1871,84
645,73	1880,44
645,92	1913,42
646,12	1885,36
646,31	1902,36
646,50	1879,22
646,69	1892,73
646,88	1844,81
647,07	1918,13
647,26	1885,56
647,45	1866,31
647,64	1923,04
647,83	1868,36
648,02	1955,61
648,22	1995,54
648,41	1949,67
648,60	2027,08
648,79	2178,42
648,98	2370,93
649,17	2578,80
649,36	2741,62
649,55	3005,19
649,74	3222,68
649,93	3162,27
650,12	3177,63
650,31	3075,23
650,50	2874,32
650,69	2714,58
650,88	2651,30
651,08	2415,17
651,27	2378,51
651,46	2316,87
651,65	2203,00
651,84	2228,39
652,03	2269,35
652,22	2269,97
652,41	2279,18
652,60	2381,99
652,79	2332,43
652,98	2248,87
653,17	2192,76
653,36	2138,08
653,55	2069,68
653,74	2054,32
653,93	2007,42
654,12	1944,34
654,31	1934,92
654,50	1920,18
654,69	1999,64
654,88	1942,09
655,07	1849,52
655,26	1845,22
655,45	1838,26
655,64	1835,80
655,83	1885,97
656,02	1910,55
656,21	1864,88
656,40	1893,76
656,59	1975,47
656,78	1969,53
656,97	1970,97
657,17	2052,27
657,36	1981,61
657,55	2090,98
657,74	1998,00
657,93	1922,22
658,12	1890,28
658,31	1869,18
658,50	1813,68
658,69	1777,64
658,87	1818,39
659,06	1777,43
659,25	1767,19
659,44	1734,42
659,63	1804,26
659,82	1787,67
660,01	1770,06
660,20	1745,48
660,39	1829,45
660,58	1819,01
660,77	1890,89
660,96	2027,49
661,15	2124,36
661,34	2295,77
661,53	2367,04
661,72	2476,61
661,91	2513,88
662,10	2459,61
662,29	2326,08
662,48	2278,37
662,67	2180,88
662,86	2092,00
663,05	2029,54
663,24	2035,27
663,43	1948,23
663,62	1986,73
663,81	1852,39
664,00	1910,35
664,19	1782,96
664,38	1799,14
664,57	1767,40
664,76	1786,44
664,94	1732,38
665,13	1753,47
665,32	1717,22
665,51	1759,61
665,70	1702,89
665,89	1781,12
666,08	1765,76
666,27	1744,05
666,46	1754,29
666,65	1776,82
666,84	1704,73
667,03	1721,73
667,22	1735,24
667,41	1783,17
667,60	1742,41
667,78	1748,56
667,97	1756,34
668,16	1782,35
668,35	1712,51
668,54	1723,37
668,73	1687,32
668,92	1721,52
669,11	1698,18
669,30	1716,61
669,49	1692,24
669,68	1763,92
669,86	1698,79
670,05	1679,13
670,24	1650,46
670,43	1743,85
670,62	1740,36
670,81	1708,21
671,00	1698,18
671,19	1743,44
671,38	1693,26
671,57	1676,88
671,75	1648,21
671,94	1718,66
672,13	1687,12
672,32	1660,90
672,51	1661,52
672,70	1714,56
672,89	1658,85
673,08	1630,39
673,26	1606,02
673,45	1625,47
673,64	1631,62
673,83	1646,57
674,02	1630,59
674,21	1750,60
674,40	1681,79
674,59	1696,13
674,77	1658,65
674,96	1716,20
675,15	1701,66
675,34	1642,27
675,53	1692,44
675,72	1666,64
675,91	1673,60
676,09	1695,92
676,28	1779,68
676,47	1641,45
676,66	1591,07
676,85	1692,03
677,04	1679,54
677,22	1682,20
677,41	1649,43
677,60	1690,39
677,79	1627,32
677,98	1676,47
678,17	1622,20
678,36	1685,89
678,54	1621,58
678,73	1686,09
678,92	1642,06
679,11	1700,63
679,30	1666,64
679,48	1682,20
679,67	1706,57
679,86	1677,29
680,05	1738,52
680,24	1662,95
680,43	1716,81
680,61	1662,75
680,80	1630,59
680,99	1652,71
681,18	1666,43
681,37	1677,08
681,55	1756,95
681,74	1708,21
681,93	1655,37
682,12	1619,74
682,31	1633,26
682,49	1639,60
682,68	1720,70
682,87	1658,85
683,06	1632,44
683,25	1685,27
683,43	1690,19
683,62	1651,07
683,81	1696,13
684,00	1744,05
684,19	1686,91
684,37	1657,63
684,56	1635,51
684,75	1750,81
684,94	1689,78
685,12	1799,14
685,31	1767,40
685,50	1779,89
685,69	1847,68
685,88	1881,06
686,06	1951,71
686,25	2038,75
686,44	2134,39
686,63	2188,05
686,81	2285,53
687,00	2228,19
687,19	2280,62
687,38	2275,50
687,56	2151,60
687,75	2191,53
687,94	2041,42
688,13	1955,20
688,31	1904,82
688,50	1831,09
688,69	1800,16
688,88	1808,97
689,06	1756,95
689,25	1722,34
689,44	1658,45
689,63	1691,83
689,81	1626,50
690,00	1642,06
690,19	1660,90
690,38	1667,46
690,56	1588,61
690,75	1667,87
690,94	1615,85
691,13	1579,39
691,31	1613,18
691,50	1585,54
691,69	1622,61
691,87	1589,43
692,06	1689,16
692,25	1768,01
692,44	1797,91
692,62	1929,39
692,81	2136,24
693,00	2080,94
693,18	2054,52
693,37	2057,80
693,56	1926,93
693,75	1830,06
693,93	1841,94
694,12	1779,89
694,31	1687,94
694,49	1591,27
694,68	1595,16
694,87	1626,09
695,05	1601,10
695,24	1640,63
695,43	1663,36
695,62	1685,89
695,80	1754,09
695,99	1828,63
696,18	1717,63
696,36	1759,41
696,55	1612,98
696,74	1542,12
696,92	1614,21
697,11	1594,96
697,30	1609,91
697,48	1549,49
697,67	1514,88
697,86	1557,89
698,04	1505,87
698,23	1527,38
698,42	1550,11
698,60	1539,66
698,79	1546,63
698,98	1563,83
699,16	1520,62
699,35	1486,21
699,54	1568,95
699,72	1512,22
699,91	1640,42
700,10	1532,90
700,28	1569,56
700,47	1659,47
700,66	1553,79
700,84	1560,55
701,03	1540,07
701,21	1567,11
701,40	1537,00
701,59	1595,37
701,77	1579,80
701,96	1576,53
702,15	1614,00
702,33	1624,45
702,52	1582,06
702,71	1676,67
702,89	1669,09
703,08	1696,54
703,26	1777,64
703,45	1795,66
703,64	1763,10
703,82	1834,57
704,01	1773,54
704,20	1818,19
704,38	1868,98
704,57	1873,69
704,75	1925,30
704,94	2095,48
705,13	2199,52
705,31	2391,21
705,50	2529,04
705,68	2719,70
705,87	2956,86
706,06	3093,66
706,24	3181,72
706,43	3169,23
706,61	3166,57
706,80	3009,90
706,99	2933,10
707,17	2844,42
707,36	2733,83
707,54	2739,98
707,73	2853,23
707,92	3018,09
708,10	3209,17
708,29	3403,72
708,47	3440,18
708,66	3351,71
708,84	3159,61
709,03	2923,07
709,22	2609,32
709,40	2381,38
709,59	2240,48
709,77	2163,68
709,96	2083,40
710,14	1964,21
710,33	2051,86
710,52	2127,84
710,70	2285,94
710,89	2381,17
711,07	2575,12
711,26	2815,55
711,44	3048,40
711,63	3047,38
711,81	3039,60
712,00	2942,52
712,19	2820,46
712,37	2653,55
712,56	2417,42
712,74	2178,83
712,93	2062,10
713,11	1930,82
713,30	1828,84
713,48	1796,89
713,67	1730,12
713,85	1697,56
714,04	1681,79
714,22	1695,10
714,41	1648,41
714,59	1577,14
714,78	1609,29
714,97	1572,64
715,15	1534,54
715,34	1557,07
715,52	1482,73
715,71	1524,10
715,89	1540,07
716,08	1527,38
716,26	1486,21
716,45	1503,41
716,63	1499,73
716,82	1553,18
717,00	1469,21
717,19	1539,46
717,37	1505,87
717,56	1503,62
717,74	1495,84
717,93	1533,31
718,11	1528,19
718,30	1453,03
718,48	1521,64
718,67	1590,45
718,85	1502,39
719,04	1516,32
719,22	1455,49
719,41	1534,95
719,59	1567,11
719,78	1496,66
719,96	1493,17
720,15	1527,99
720,33	1502,59
720,52	1513,04
720,70	1468,39
720,88	1529,42
721,07	1494,81
721,25	1491,95
721,44	1487,03
721,62	1507,71
721,81	1443,82
721,99	1399,79
722,18	1461,23
722,36	1504,03
722,55	1498,09
722,73	1472,90
722,92	1528,81
723,10	1468,60
723,28	1498,70
723,47	1513,24
723,65	1548,47
723,84	1498,09
724,02	1454,88
724,21	1514,88
724,39	1460,00
724,58	1465,94
724,76	1530,65
724,94	1457,13
725,13	1509,97
725,31	1492,35
725,50	1534,34
725,68	1521,23
725,87	1502,19
726,05	1527,58
726,23	1499,32
726,42	1496,25
726,60	1523,07
726,79	1524,10
726,97	1564,85
727,16	1613,80
727,34	1539,05
727,52	1472,49
727,71	1544,99
727,89	1453,44
728,08	1462,04
728,26	1520,62
728,44	1495,02
728,63	1549,29
728,81	1477,20
729,00	1503,82
729,18	1509,35
729,36	1475,97
729,55	1534,13
729,73	1532,09
729,92	1514,27
730,10	1482,52
730,28	1467,16
730,47	1469,42
730,65	1492,15
730,84	1555,84
731,02	1445,66
731,20	1571,41
731,39	1501,78
731,57	1508,33
731,75	1505,26
731,94	1480,68
732,12	1538,43
732,31	1495,22
732,49	1442,79
732,67	1494,61
732,86	1426,21
733,04	1474,95
733,22	1465,94
733,41	1436,65
733,59	1467,78
733,78	1517,75
733,96	1520,62
734,14	1441,16
734,33	1432,96
734,51	1523,07
734,69	1489,28
734,88	1456,72
735,06	1464,30
735,24	1473,31
735,43	1513,65
735,61	1416,38
735,79	1502,59
735,98	1469,42
736,16	1559,73
736,34	1499,11
736,53	1508,12
736,71	1523,07
736,89	1548,26
737,08	1630,59
737,26	1608,88
737,44	1653,53
737,63	1728,08
737,81	1707,80
737,99	1789,92
738,18	1704,73
738,36	1731,76
738,54	1625,88
738,73	1587,38
738,91	1583,49
739,09	1516,73
739,28	1497,88
739,46	1493,38
739,64	1490,72
739,82	1553,18
740,01	1478,02
740,19	1591,89
740,37	1508,74
740,56	1519,80
740,74	1493,58
740,92	1511,40
741,11	1447,30
741,29	1513,45
741,47	1587,59
741,65	1491,95
741,84	1526,15
742,02	1589,43
742,20	1536,18
742,39	1507,71
742,57	1529,63
742,75	1487,64
742,93	1503,00
743,12	1526,56
743,30	1459,38
743,48	1492,15
743,67	1497,07
743,85	1443,82
744,03	1552,36
744,21	1469,83
744,40	1477,20
744,58	1490,31
744,76	1459,38
744,94	1490,31
745,13	1480,48
745,31	1452,42
745,49	1496,04
745,67	1441,97
745,86	1536,59
746,04	1481,09
746,22	1518,57
746,40	1468,60
746,59	1457,95
746,77	1516,32
746,95	1547,24
747,13	1487,23
747,32	1499,11
747,50	1503,82
747,68	1472,08
747,86	1470,44
748,05	1539,46
748,23	1486,21
748,41	1497,27
748,59	1448,73
748,77	1457,74
748,96	1514,27
749,14	1505,87
749,32	1697,36
749,50	1694,08
749,69	1712,31
749,87	1764,33
750,05	1749,58
750,23	1714,15
750,41	1738,52
750,60	1781,53
750,78	1710,67
750,96	1772,31
751,14	1736,27
751,32	1701,45
751,51	1596,80
751,69	1558,50
751,87	1506,69
752,05	1553,18
752,23	1530,04
752,42	1487,44
752,60	1498,91
752,78	1509,15
752,96	1474,74
753,14	1493,17
753,33	1454,26
753,51	1457,95
753,69	1452,42
753,87	1482,93
754,05	1500,55
754,23	1482,73
754,42	1469,21
754,60	1454,26
754,78	1540,07
754,96	1435,63
755,14	1450,99
755,32	1493,99
755,51	1410,03
755,69	1486,83
755,87	1437,26
756,05	1429,89
756,23	1451,81
756,41	1484,78
756,60	1482,52
756,78	1487,03
756,96	1432,35
757,14	1479,86
757,32	1441,77
757,50	1491,95
757,68	1452,62
757,87	1446,48
758,05	1450,58
758,23	1448,12
758,41	1554,82
758,59	1510,99
758,77	1524,10
758,95	1517,95
759,14	1479,66
759,32	1506,08
759,50	1460,00
759,68	1455,90
759,86	1483,75
760,04	1475,77
760,22	1469,83
760,40	1607,86
760,59	1476,59
760,77	1520,41
760,95	1454,47
761,13	1441,36
761,31	1505,46
761,49	1490,92
761,67	1524,71
761,85	1485,80
762,03	1605,81
762,22	1824,33
762,40	2011,31
762,58	2177,40
762,76	2397,97
762,94	2538,25
763,12	2506,30
763,30	2378,51
763,48	2157,33
763,66	1926,32
763,84	1768,63
764,02	1706,37
764,21	1635,10
764,39	1690,80
764,57	1563,42
764,75	1509,35
764,93	1525,33
765,11	1484,98
765,29	1520,21
765,47	1506,49
765,65	1482,93
765,83	1484,78
766,01	1486,21
766,19	1514,68
766,37	1559,32
766,56	1487,44
766,74	1443,82
766,92	1466,55
767,10	1427,84
767,28	1488,46
767,46	1482,52
767,64	1454,88
767,82	1498,09
768,00	1460,00
768,18	1441,16
768,36	1509,15
768,54	1538,84
768,72	1525,94
768,90	1442,38
769,08	1418,01
769,26	1477,20
769,44	1457,54
769,62	1480,68
769,80	1504,23
769,98	1477,40
770,16	1469,21
770,34	1483,96
770,52	1444,84
770,71	1497,88
770,89	1503,62
771,07	1665,00
771,25	1621,99
771,43	1768,42
771,61	1814,71
771,79	1824,33
771,97	1833,14
772,15	1816,96
772,33	1699,61
772,51	1711,28
772,69	1555,84
772,87	1580,01
773,05	1540,07
773,23	1563,42
773,41	1540,89
773,59	1567,92
773,77	1482,73
773,95	1514,27
774,13	1506,28
774,31	1525,53
774,49	1527,17
774,67	1457,95
774,85	1478,02
775,03	1462,86
775,21	1486,83
775,39	1433,58
775,57	1459,59
775,75	1505,05
775,93	1459,79
776,10	1455,08
776,28	1504,85
776,46	1444,43
776,64	1460,00
776,82	1445,66
777,00	2560,58
777,18	1427,43
777,36	1496,66
777,54	1466,14
777,72	1431,73
777,90	1509,97
778,08	1435,42
778,26	1429,89
778,44	1452,83
778,62	1474,74
778,80	1531,27
778,98	1502,39
779,16	1445,66
779,34	1560,55
779,52	1454,47
779,70	1537,21
779,88	1445,05
780,05	1446,48
780,23	1438,90
780,41	1490,10
780,59	1493,58
780,77	1483,75
780,95	1489,49
781,13	1486,83
781,31	1455,08
781,49	1529,01
781,67	1495,63
781,85	1462,45
782,03	1477,61
782,21	1462,86
782,39	1473,51
782,56	1490,10
782,74	1518,98
782,92	1474,33
783,10	1557,48
783,28	1461,64
783,46	1439,52
783,64	1511,61
783,82	1469,83
784,00	1529,22
784,18	1447,50
784,35	1440,54
784,53	1470,03
784,71	1473,92
784,89	1467,37
785,07	1464,09
785,25	1491,95
785,43	1516,52
785,61	1440,54
785,79	1473,92
785,96	1516,93
786,14	1445,25
786,32	1520,21
786,50	1517,14
786,68	1406,14
786,86	1443,00
787,04	1496,04
787,22	1470,44
787,39	1457,13
787,57	1444,43
787,75	1486,01
787,93	1494,20
788,11	1436,24
788,29	1476,18
788,47	1474,74
788,65	1449,76
788,82	1465,32
789,00	1463,48
789,18	1476,59
789,36	1454,88
789,54	1466,76
789,72	1445,87
789,89	1457,13
790,07	1522,46
790,25	1506,08
790,43	1477,61
790,61	1513,86
790,79	1464,30
790,96	1462,66
791,14	1527,58
791,32	1399,99
791,50	1505,05
791,68	1501,57
791,86	1469,83
792,03	1492,15
792,21	1487,03
792,39	1432,96
792,57	1429,89
792,75	1418,63
792,93	1481,50
793,10	1453,65
793,28	1478,22
793,46	1464,30
793,64	1588,40
793,82	1689,57
793,99	1692,65
794,17	1632,23
794,35	1719,88
794,53	1683,64
794,71	1569,36
794,88	1542,53
795,06	1544,37
795,24	1516,11
795,42	1525,94
795,60	1544,78
795,77	1464,09
795,95	1490,10
796,13	1477,00
796,31	1517,75
796,49	1552,36
796,66	1477,00
796,84	1447,91
797,02	1524,71
797,20	1501,37
797,37	1495,22
797,55	1421,90
797,73	1456,11
797,91	1421,90
798,08	1482,52
798,26	1506,08
798,44	1426,62
798,62	1441,97
798,80	1460,82
798,97	1444,43
799,15	1470,24
799,33	1554,20
799,51	1586,56
799,68	1559,12
799,86	1610,93
800,04	1608,88
800,22	1667,05
800,39	1666,84
800,57	1797,30
800,75	1759,21
800,93	1766,78
801,10	1749,37
801,28	1770,67
801,46	1589,84
801,63	1598,23
801,81	1560,35
801,99	1533,11
802,17	1525,12
802,34	1547,04
802,52	1478,84
802,70	1511,81
802,88	1506,28
803,05	1546,42
803,23	1471,26
803,41	1448,73
803,58	1500,75
803,76	1507,10
803,94	1524,30
804,12	1510,99
804,29	1418,01
804,47	1529,83
804,65	1497,68
804,82	1482,93
805,00	1461,43
805,18	1474,33
805,35	1473,10
805,53	1523,89
805,71	1468,19
805,89	1492,76
806,06	1491,33
806,24	1435,01
806,42	1471,47
806,59	1457,74
806,77	1519,39
806,95	1483,14
807,12	1490,31
807,30	1517,95
807,48	1421,90
807,65	1414,53
807,83	1490,31
808,01	1474,54
808,18	1483,96
808,36	1489,28
808,54	1403,68
808,71	1463,07
808,89	1527,38
809,07	1560,55
809,24	1581,03
809,42	1683,64
809,60	1644,11
809,77	1731,76
809,95	1777,84
810,13	1768,22
810,30	1861,60
810,48	2066,20
810,66	2099,58
810,83	2251,74
811,01	2272,63
811,18	2221,84
811,36	2045,10
811,54	1936,56
811,71	1828,22
811,89	1766,37
812,07	1650,25
812,24	1721,93
812,42	1556,46
812,59	1577,55
812,77	1555,64
812,95	1550,31
813,12	1514,47
813,30	1487,03
813,48	1504,85
813,65	1524,10
813,83	1532,09
814,00	1529,63
814,18	1518,16
814,36	1463,48
814,53	1481,09
814,71	1494,20
814,88	1510,99
815,06	1460,61
815,24	1498,91
815,41	1437,06
815,59	1463,07
815,76	1444,43
815,94	1524,92
816,12	1483,96
816,29	1515,70
816,47	1491,13
816,64	1537,21
816,82	1438,08
817,00	1527,38
817,17	1518,77
817,35	1560,76
817,52	1498,29
817,70	1496,04
817,87	1513,24
818,05	1456,72
818,23	1480,89
818,40	1546,63
818,58	1498,70
818,75	1446,69
818,93	1453,24
819,10	1514,06
819,28	1458,97
819,46	1489,90
819,63	1454,67
819,81	1530,04
819,98	1430,92
820,16	1518,36
820,33	1461,64
820,51	1529,63
820,68	1476,79
820,86	1519,80
821,03	1551,95
821,21	1523,69
821,39	1577,14
821,56	1471,88
821,74	1455,90
821,91	1448,32
822,09	1466,76
822,26	1466,96
822,44	1438,08
822,61	1441,36
822,79	1512,83
822,96	1458,97
823,14	1455,49
823,31	1463,48
823,49	1508,33
823,66	1497,68
823,84	1457,13
824,01	1452,62
824,19	1422,72
824,36	1478,02
824,54	1502,59
824,71	1526,15
824,89	1479,86
825,06	1542,73
825,24	1513,65
825,41	1545,19
825,59	1557,07
825,76	1578,37
825,94	1558,30
826,11	1615,44
826,29	1540,69
826,46	1560,76
826,64	1568,74
826,81	1596,60
826,99	1489,90
827,16	1469,62
827,34	1458,56
827,51	1456,52
827,69	1558,91
827,86	1533,72
828,04	1493,79
828,21	1507,10
828,39	1518,77
828,56	1499,32
828,74	1513,45
828,91	1474,54
829,09	1602,33
829,26	1471,26
829,43	1522,46
829,61	1469,83
829,78	1482,73
829,96	1510,99
830,13	1466,14
830,31	1509,35
830,48	1500,14
830,66	1449,35
830,83	1466,55
831,01	1438,29
831,18	1466,96
831,35	1472,69
831,53	1514,27
831,70	1518,98
831,88	1575,09
832,05	1507,71
832,23	1473,92
832,40	1495,43
832,57	1525,94
832,75	1444,43
832,92	1507,92
833,10	1545,40
833,27	1471,47
833,45	1461,84
833,62	1474,74
833,79	1499,11
833,97	1473,72
834,14	1489,08
834,32	1508,74
834,49	1471,67
834,66	1471,47
834,84	1437,47
835,01	1524,30
835,19	1440,13
835,36	1450,58
835,53	1558,71
835,71	1486,83
835,88	1484,57
836,06	1515,29
836,23	1563,83
836,40	1452,83
836,58	1442,18
836,75	1463,27
836,93	1439,93
837,10	1488,87
837,27	1491,74
837,45	1486,62
837,62	1437,47
837,79	1436,65
837,97	1527,58
838,14	1467,37
838,32	1489,28
838,49	1480,89
838,66	1505,26
838,84	1502,39
839,01	1519,59
839,18	1490,72
839,36	1482,32
839,53	1488,05
839,70	1553,79
839,88	1560,96
840,05	1625,47
840,23	1588,61
840,40	1588,81
840,57	1607,25
840,75	1617,08
840,92	1654,14
841,09	1597,21
841,27	1627,73
841,44	1642,06
841,61	1703,91
841,79	1689,78
841,96	1691,62
842,13	1639,40
842,31	1659,47
842,48	1597,62
842,65	1584,31
842,83	1576,94
843,00	1568,95
843,17	1511,61
843,35	1604,38
843,52	1520,62
843,69	1531,88
843,86	1485,19
844,04	1486,42
844,21	1498,09
844,38	1538,02
844,56	1478,43
844,73	1508,94
844,90	1507,51
845,08	1521,64
845,25	1490,72
845,42	1505,05
845,60	1521,85
845,77	1464,71
845,94	1460,20
846,11	1463,48
846,29	1520,41
846,46	1463,07
846,63	1481,30
846,81	1531,27
846,98	1471,67
847,15	1495,02
847,32	1477,40
847,50	1443,20
847,67	1471,88
847,84	1472,69
848,01	1488,87
848,19	1486,83
848,36	1500,96
848,53	1460,00
848,71	1518,57
848,88	1459,18
849,05	1423,13
849,22	1487,44
849,40	1487,44
849,57	1520,82
849,74	1488,05
849,91	1479,25
850,09	1445,66
850,26	1472,08
850,43	1465,32
850,60	1488,67
850,78	1467,98
850,95	1496,04
851,12	1461,02
851,29	1538,64
851,47	1575,50
851,64	1520,82
851,81	1514,88
851,98	1491,74
852,15	1567,92
852,33	1474,74
852,50	1491,33
852,67	1522,26
852,84	1490,10
853,02	1532,50
853,19	1546,63
853,36	1471,88
853,53	1457,74
853,70	1586,36
853,88	1520,21
854,05	1525,53
854,22	1468,60
854,39	1539,46
854,56	1518,77
854,74	1445,87
854,91	1513,04
855,08	1426,82
855,25	1496,86
855,42	1449,55
855,60	1477,40
855,77	1525,33
855,94	1535,16
856,11	1465,32
856,28	1456,72
856,46	1520,41
856,63	1476,18
856,80	1449,14
856,97	1501,98
857,14	1496,66
857,31	1454,06
857,49	1481,09
857,66	1490,51
857,83	1447,30
858,00	1470,03
858,17	1488,05
858,34	1488,26
858,52	1458,97
858,69	1483,55
858,86	1497,07
859,03	1457,13
859,20	1533,72
859,37	1491,33
859,55	1475,15
859,72	1500,55
859,89	1487,64
860,06	1524,51
860,23	1505,26
860,40	1440,34
860,57	1507,71
860,75	1426,62
860,92	1514,47
861,09	1500,75
861,26	1514,88
861,43	1470,44
861,60	1466,76
861,77	1460,20
861,95	1441,36
862,12	1498,50
862,29	1468,60
862,46	1502,59
862,63	1531,27
862,80	1529,01
862,97	1531,47
863,14	1442,59
863,31	1518,16
863,49	1487,03
863,66	1488,05
863,83	1513,04
864,00	1538,84
864,17	1448,73
864,34	1508,33
864,51	1449,55
864,68	1480,27
864,85	1471,47
865,02	1481,30
865,20	1516,11
865,37	1480,27
865,54	1485,60
865,71	1519,39
865,88	1455,70
866,05	1461,84
866,22	1461,23
866,39	1472,69
866,56	1439,52
866,73	1486,62
866,90	1553,18
867,07	1543,35
867,25	1444,23
867,42	1546,63
867,59	1454,47
867,76	1510,38
867,93	1452,83
868,10	1500,75
868,27	1467,98
868,44	1512,22
868,61	1472,90
868,78	1510,79
868,95	1447,30
869,12	1529,22
869,29	1482,93
869,46	1523,48
869,63	1488,05
869,80	1446,28
869,97	1530,04
870,14	1498,91
870,32	1496,66
870,49	1481,91
870,66	1542,12
870,83	1484,98
871,00	1462,86
871,17	1476,79
871,34	1500,75
871,51	1488,26
871,68	1469,83
871,85	1501,16
872,02	1539,87
872,19	1481,30
872,36	1449,14
872,53	1501,16
872,70	1477,81
872,87	1453,03
873,04	1428,25
873,21	1444,43
873,38	1452,21
873,55	1525,33
873,72	1487,64
873,89	1467,16
874,06	1436,04
874,23	1433,78
874,40	1455,70
874,57	1460,00
874,74	1544,78
874,91	1448,53
875,08	1461,64
875,25	1501,78
875,42	1515,09
875,59	1496,66
875,76	1495,22
875,93	1500,75
876,10	1548,26
876,27	1448,12
876,44	1581,65
876,61	1489,08
876,78	1460,82
876,95	1517,95
877,12	1475,15
877,29	1486,62
877,46	1502,19
877,62	1489,08
877,79	1423,34
877,96	1504,64
878,13	1471,67
878,30	1480,89
878,47	1526,56
878,64	1510,99
878,81	1491,74
878,98	1479,86
879,15	1531,68
879,32	1515,70
879,49	1516,11
879,66	1481,50
879,83	1480,27
880,00	1541,10
880,17	1441,57
880,34	1495,02
880,51	1466,96
880,67	1518,57
880,84	1407,16
881,01	1470,24
881,18	1532,70
881,35	1473,31
881,52	1587,38
881,69	1467,37
881,86	1566,29
882,03	1483,75
882,20	1491,13
882,37	1493,17
882,54	1516,73
882,70	1488,67
882,87	1461,84
883,04	1526,56
883,21	1494,40
883,38	1444,64
883,55	1467,98
883,72	1469,42
883,89	1464,91
884,06	1470,24
884,23	1433,17
884,39	1449,76
884,56	1499,52
884,73	1516,93
884,90	1492,15
885,07	1512,83
885,24	1466,96
885,41	1558,91
885,58	1470,85
885,74	1447,71
885,91	1505,67
886,08	1508,53
886,25	1462,45
886,42	1461,43
886,59	1521,64
886,76	1445,66
886,93	1416,78
887,09	1511,61
887,26	1624,04
887,43	1503,62
887,60	1499,11
887,77	1481,91
887,94	1510,17
888,10	1608,68
888,27	1518,16
888,44	1504,44
888,61	1416,38
888,78	1415,97
888,95	1509,35
889,12	1444,43
889,28	1517,34
889,45	1487,03
889,62	1496,86
889,79	1465,53
889,96	1480,68
890,13	1469,62
890,29	1471,67
890,46	1558,91
890,63	1503,82
890,80	1484,16
890,97	1478,02
891,13	1456,92
891,30	1516,32
891,47	1585,13
891,64	1440,75
891,81	1472,49
891,98	1494,20
892,14	1506,49
892,31	1460,20
892,48	1460,61
892,65	1472,69
892,82	1493,17
892,98	1448,12
893,15	1507,10
893,32	1487,64
>>>>>End Processed Spectral Data<<<<<
