SpectraSuite Datei
++++++++++++++++++++++++++++++++++++
Datum: Thu Mar 09 10:22:26 CET 2017
Benutzer: Admin
Dark-Spektrum vorhanden: Nein
Referenz-Spektrum vorhanden: Nein
Zahl der probierten Teilspektren: 1
Spektrometer: USB4F05832
Integrationszeit (usec): 100000 (USB4F05832)
Spektren Durchschnitt berechnet: 10 (USB4F05832)
Boxcar Glättung: 0 (USB4F05832)
Dunkelstromkorrektur: Nein (USB4F05832)
Puls/Lampe aktiviert: Nein (USB4F05832)
Correct for Detector Non-linearity: Nein (USB4F05832)
Streulichtkorrektur: Nein (USB4F05832)
Anzahl Pixel in verarbeitetem Spektrum: 3648
>>>>>Begin Processed Spectral Data<<<<<
177,54	1330,77
177,75	1330,77
177,97	1330,77
178,19	1322,17
178,41	1342,24
178,63	1503,62
178,85	1397,74
179,07	1449,14
179,29	1482,73
179,51	1402,04
179,73	1483,96
179,95	1459,59
180,17	1460,41
180,39	1516,93
180,61	1510,17
180,83	1521,44
181,05	1451,40
181,27	1475,15
181,49	1449,55
181,71	1469,21
181,92	1611,14
182,14	1490,31
182,36	1476,38
182,58	1506,28
182,80	1466,35
183,02	1561,17
183,24	1545,81
183,46	1492,76
183,68	1468,39
183,90	1504,23
184,12	1434,40
184,34	1510,58
184,56	1481,30
184,78	1460,41
185,00	1495,22
185,21	1552,57
185,43	1480,68
185,65	1517,54
185,87	1474,54
186,09	1548,47
186,31	1475,97
186,53	1508,74
186,75	1515,70
186,97	1544,58
187,19	1543,76
187,41	1453,85
187,63	1557,89
187,84	1447,50
188,06	1534,34
188,28	1482,32
188,50	1515,70
188,72	1584,51
188,94	1537,61
189,16	1456,52
189,38	1474,54
189,60	1500,75
189,82	1487,44
190,03	1499,73
190,25	1483,55
190,47	1542,33
190,69	1474,33
190,91	1426,21
191,13	1473,92
191,35	1555,23
191,57	1470,65
191,79	1501,78
192,01	1491,95
192,22	1549,90
192,44	1471,88
192,66	1494,81
192,88	1498,29
193,10	1499,11
193,32	1477,40
193,54	1561,99
193,76	1556,25
193,98	1476,59
194,19	1520,21
194,41	1488,46
194,63	1447,09
194,85	1469,62
195,07	1579,19
195,29	1453,65
195,51	1529,01
195,73	1468,80
195,94	1479,86
196,16	1494,40
196,38	1575,09
196,60	1486,42
196,82	1493,79
197,04	1484,78
197,26	1470,44
197,48	1453,24
197,69	1481,50
197,91	1459,18
198,13	1472,69
198,35	1510,17
198,57	1470,85
198,79	1530,86
199,01	1527,99
199,22	1494,61
199,44	1528,60
199,66	1503,82
199,88	1505,67
200,10	1522,87
200,32	1515,29
200,54	1508,94
200,75	1578,37
200,97	1456,92
201,19	1540,48
201,41	1532,90
201,63	1477,81
201,85	1478,43
202,06	1514,27
202,28	1482,93
202,50	1500,96
202,72	1439,31
202,94	1446,28
203,16	1472,49
203,38	1499,93
203,59	1470,44
203,81	1558,71
204,03	1424,36
204,25	1501,78
204,47	1536,18
204,69	1487,03
204,90	1462,45
205,12	1511,81
205,34	1509,15
205,56	1495,63
205,78	1464,50
206,00	1570,18
206,21	1541,51
206,43	1486,01
206,65	1521,03
206,87	1470,44
207,09	1505,67
207,30	1471,26
207,52	1526,35
207,74	1507,92
207,96	1479,66
208,18	1490,72
208,40	1475,56
208,61	1445,25
208,83	1509,76
209,05	1439,31
209,27	1431,53
209,49	1529,01
209,70	1509,97
209,92	1521,03
210,14	1462,86
210,36	1486,42
210,58	1495,43
210,79	1525,53
211,01	1447,71
211,23	1501,98
211,45	1583,28
211,67	1502,59
211,88	1450,17
212,10	1527,78
212,32	1456,11
212,54	1497,27
212,76	1499,52
212,97	1469,21
213,19	1447,30
213,41	1523,07
213,63	1456,72
213,85	1471,67
214,06	1459,79
214,28	1588,40
214,50	1499,52
214,72	1537,82
214,94	1518,36
215,15	1476,79
215,37	1464,71
215,59	1468,19
215,81	1553,18
216,02	1506,49
216,24	1533,93
216,46	1453,65
216,68	1477,00
216,90	1507,71
217,11	1544,58
217,33	1462,45
217,55	1559,94
217,77	1501,98
217,98	1520,82
218,20	1499,32
218,42	1549,70
218,64	1503,82
218,85	1536,59
219,07	1510,17
219,29	1521,64
219,51	1518,16
219,73	1489,08
219,94	1472,08
220,16	1562,60
220,38	1507,30
220,60	1472,49
220,81	1422,72
221,03	1445,87
221,25	1536,59
221,47	1436,45
221,68	1468,19
221,90	1529,01
222,12	1480,89
222,34	1483,96
222,55	1523,69
222,77	1596,19
222,99	1504,85
223,21	1504,03
223,42	1561,78
223,64	1507,30
223,86	1490,31
224,08	1513,24
224,29	1546,01
224,51	1503,21
224,73	1517,95
224,94	1487,44
225,16	1472,69
225,38	1474,95
225,60	1535,16
225,81	1477,81
226,03	1495,43
226,25	1422,93
226,47	1529,01
226,68	1528,81
226,90	1523,69
227,12	1513,04
227,33	1515,70
227,55	1460,82
227,77	1465,73
227,99	1598,23
228,20	1459,38
228,42	1495,63
228,64	1511,40
228,86	1503,82
229,07	1490,51
229,29	1457,54
229,51	1447,30
229,72	1569,97
229,94	1483,96
230,16	1535,77
230,38	1481,91
230,59	1495,22
230,81	1580,21
231,03	1523,48
231,24	1482,52
231,46	1505,87
231,68	1453,44
231,89	1490,51
232,11	1472,49
232,33	1563,01
232,55	1488,87
232,76	1528,81
232,98	1490,92
233,20	1469,62
233,41	1467,16
233,63	1494,61
233,85	1484,16
234,06	1474,74
234,28	1531,06
234,50	1469,83
234,71	1517,14
234,93	1578,57
235,15	1500,96
235,37	1459,79
235,58	1523,07
235,80	1449,96
236,02	1476,18
236,23	1515,50
236,45	1485,39
236,67	1540,69
236,88	1507,31
237,10	1519,18
237,32	1562,40
237,53	1518,77
237,75	1492,76
237,97	1446,48
238,18	1493,58
238,40	1521,64
238,62	1507,92
238,83	1503,82
239,05	1483,34
239,27	1461,23
239,48	1468,60
239,70	1489,08
239,92	1542,94
240,13	1567,72
240,35	1475,77
240,57	1516,93
240,78	1510,38
241,00	1471,06
241,22	1470,24
241,43	1572,64
241,65	1488,26
241,87	1551,13
242,08	1623,22
242,30	1471,06
242,52	1522,46
242,73	1520,00
242,95	1471,26
243,16	1514,06
243,38	1581,85
243,60	1518,98
243,81	1536,39
244,03	1556,87
244,25	1455,49
244,46	1492,76
244,68	1464,50
244,90	1485,80
245,11	1474,54
245,33	1488,26
245,55	1516,32
245,76	1488,87
245,98	1492,56
246,19	1544,37
246,41	1565,06
246,63	1533,93
246,84	1556,66
247,06	1511,40
247,28	1530,24
247,49	1511,20
247,71	1451,81
247,92	1553,59
248,14	1575,50
248,36	1534,13
248,57	1523,69
248,79	1527,38
249,01	1523,89
249,22	1503,62
249,44	1513,24
249,65	1483,75
249,87	1505,67
250,09	1534,54
250,30	1505,46
250,52	1513,24
250,73	1538,64
250,95	1463,89
251,17	1502,19
251,38	1484,57
251,60	1475,97
251,81	1555,02
252,03	1558,09
252,25	1453,44
252,46	1487,44
252,68	1520,41
252,89	1510,79
253,11	1480,89
253,33	1560,35
253,54	1432,96
253,76	1523,48
253,97	1525,74
254,19	1560,76
254,41	1478,63
254,62	1550,31
254,84	1515,50
255,05	1522,87
255,27	1554,41
255,49	1582,06
255,70	1515,09
255,92	1491,74
256,13	1480,48
256,35	1539,87
256,56	1528,81
256,78	1533,11
257,00	1530,04
257,21	1494,20
257,43	1476,59
257,64	1514,06
257,86	1534,54
258,08	1525,94
258,29	1540,07
258,51	1488,05
258,72	1536,59
258,94	1557,69
259,15	1509,15
259,37	1499,11
259,59	1465,53
259,80	1510,99
260,02	1487,64
260,23	1504,44
260,45	1447,09
260,66	1497,88
260,88	1519,18
261,09	1501,37
261,31	1499,52
261,53	1545,19
261,74	1589,22
261,96	1449,76
262,17	1455,08
262,39	1499,11
262,60	1473,10
262,82	1506,08
263,03	1489,49
263,25	1538,23
263,46	1475,56
263,68	1538,23
263,90	1480,68
264,11	1467,98
264,33	1554,82
264,54	1533,93
264,76	1512,42
264,97	1544,99
265,19	1479,04
265,40	1555,43
265,62	1488,67
265,83	1551,34
266,05	1523,48
266,26	1489,28
266,48	1564,65
266,70	1543,76
266,91	1445,66
267,13	1502,39
267,34	1477,20
267,56	1520,62
267,77	1510,38
267,99	1501,57
268,20	1565,06
268,42	1521,85
268,63	1467,98
268,85	1617,49
269,06	1544,17
269,28	1543,35
269,49	1514,47
269,71	1528,60
269,92	1492,56
270,14	1457,74
270,35	1486,21
270,57	1547,24
270,78	1510,79
271,00	1497,88
271,21	1603,35
271,43	1476,59
271,64	1488,87
271,86	1553,79
272,07	1471,88
272,29	1594,34
272,50	1502,59
272,72	1559,53
272,93	1537,61
273,15	1561,78
273,36	1538,02
273,58	1505,87
273,79	1526,56
274,01	1508,53
274,22	1495,22
274,44	1495,43
274,65	1525,94
274,87	1556,05
275,08	1535,16
275,30	1535,16
275,51	1602,74
275,73	1569,77
275,94	1499,93
276,16	1491,54
276,37	1505,26
276,59	1531,68
276,80	1504,64
277,02	1525,12
277,23	1489,69
277,45	1513,86
277,66	1437,06
277,88	1536,18
278,09	1566,29
278,30	1527,17
278,52	1446,28
278,73	1624,04
278,95	1510,99
279,16	1582,06
279,38	1538,02
279,59	1527,17
279,81	1501,78
280,02	1533,11
280,24	1487,64
280,45	1534,13
280,67	1588,40
280,88	1567,52
281,09	1484,37
281,31	1461,02
281,52	1512,42
281,74	1597,83
281,95	1521,44
282,17	1523,48
282,38	1540,69
282,60	1535,77
282,81	1547,65
283,02	1506,90
283,24	1491,74
283,45	1577,96
283,67	1465,12
283,88	1550,11
284,10	1494,40
284,31	1543,14
284,53	1497,88
284,74	1530,04
284,95	1521,85
285,17	1527,99
285,38	1484,37
285,60	1495,02
285,81	1474,95
286,03	1529,83
286,24	1538,64
286,45	1545,60
286,67	1530,86
286,88	1531,27
287,10	1557,07
287,31	1427,23
287,53	1539,25
287,74	1513,65
287,95	1489,28
288,17	1557,48
288,38	1530,86
288,60	1505,46
288,81	1497,88
289,02	1505,05
289,24	1593,11
289,45	1522,46
289,67	1554,82
289,88	1503,41
290,10	1525,53
290,31	1529,42
290,52	1517,14
290,74	1527,17
290,95	1533,72
291,17	1536,39
291,38	1479,25
291,59	1489,90
291,81	1497,07
292,02	1506,49
292,24	1543,55
292,45	1558,50
292,66	1529,42
292,88	1556,66
293,09	1512,22
293,31	1529,01
293,52	1513,45
293,73	1469,21
293,95	1533,11
294,16	1546,83
294,37	1509,97
294,59	1550,72
294,80	1573,66
295,02	1529,63
295,23	1466,35
295,44	1525,94
295,66	1497,47
295,87	1522,66
296,09	1504,64
296,30	1509,56
296,51	1470,24
296,73	1488,26
296,94	1487,85
297,15	1496,86
297,37	1477,20
297,58	1508,12
297,79	1542,33
298,01	1546,63
298,22	1550,31
298,44	1489,28
298,65	1518,98
298,86	1559,32
299,08	1504,03
299,29	1504,03
299,50	1489,90
299,72	1458,77
299,93	1554,20
300,14	1574,48
300,36	1451,81
300,57	1484,57
300,79	1499,32
301,00	1562,60
301,21	1463,27
301,43	1504,44
301,64	1493,58
301,85	1505,67
302,07	1564,85
302,28	1476,38
302,49	1582,26
302,71	1514,27
302,92	1554,61
303,13	1552,16
303,35	1509,15
303,56	1540,07
303,77	1436,04
303,99	1541,92
304,20	1530,86
304,41	1488,05
304,63	1492,97
304,84	1547,85
305,05	1554,20
305,27	1552,57
305,48	1541,92
305,69	1521,64
305,91	1548,67
306,12	1512,22
306,33	1513,24
306,55	1516,11
306,76	1477,20
306,97	1535,77
307,19	1519,39
307,40	1550,93
307,61	1555,64
307,82	1494,20
308,04	1545,60
308,25	1565,88
308,46	1536,18
308,68	1513,04
308,89	1590,66
309,10	1499,52
309,32	1523,89
309,53	1470,03
309,74	1515,70
309,96	1498,91
310,17	1496,25
310,38	1448,32
310,59	1523,28
310,81	1518,98
311,02	1535,77
311,23	1526,56
311,45	1513,04
311,66	1516,11
311,87	1507,51
312,09	1558,09
312,30	1497,47
312,51	1572,64
312,72	1534,13
312,94	1561,17
313,15	1507,10
313,36	1548,47
313,58	1478,43
313,79	1574,48
314,00	1493,17
314,21	1485,80
314,43	1504,64
314,64	1523,69
314,85	1494,81
315,06	1504,23
315,28	1547,24
315,49	1557,69
315,70	1535,16
315,92	1565,67
316,13	1606,43
316,34	1577,14
316,55	1530,65
316,77	1475,77
316,98	1593,52
317,19	1521,64
317,40	1429,28
317,62	1467,98
317,83	1577,55
318,04	1524,92
318,25	1497,07
318,47	1509,15
318,68	1511,40
318,89	1539,66
319,11	1518,36
319,32	1515,09
319,53	1577,76
319,74	1554,41
319,96	1541,10
320,17	1518,98
320,38	1470,24
320,59	1586,77
320,81	1533,72
321,02	1538,02
321,23	1492,35
321,44	1561,17
321,65	1517,14
321,87	1527,78
322,08	1578,37
322,29	1506,08
322,50	1503,41
322,72	1519,80
322,93	1542,53
323,14	1491,74
323,35	1499,11
323,57	1550,11
323,78	1535,16
323,99	1538,84
324,20	1564,44
324,41	1486,83
324,63	1537,41
324,84	1529,22
325,05	1539,66
325,26	1547,85
325,48	1511,61
325,69	1532,29
325,90	1524,30
326,11	1494,81
326,32	1541,10
326,54	1541,10
326,75	1521,03
326,96	1495,43
327,17	1527,17
327,39	1568,54
327,60	1530,65
327,81	1525,12
328,02	1519,18
328,23	1525,53
328,45	1564,85
328,66	1500,55
328,87	1541,92
329,08	1551,95
329,29	1507,51
329,51	1504,03
329,72	1508,12
329,93	1548,26
330,14	1509,97
330,35	1522,05
330,56	1482,73
330,78	1517,75
330,99	1526,97
331,20	1569,56
331,41	1546,01
331,62	1487,03
331,84	1502,59
332,05	1516,93
332,26	1540,28
332,47	1535,16
332,68	1516,73
332,90	1503,00
333,11	1465,12
333,32	1617,08
333,53	1526,97
333,74	1447,09
333,95	1565,47
334,17	1524,51
334,38	1545,81
334,59	1483,34
334,80	1515,09
335,01	1566,90
335,22	1532,09
335,44	1525,12
335,65	1497,68
335,86	1562,19
336,07	1520,21
336,28	1504,85
336,49	1507,31
336,71	1472,08
336,92	1526,97
337,13	1506,28
337,34	1491,54
337,55	1597,83
337,76	1489,90
337,97	1545,60
338,19	1531,47
338,40	1512,22
338,61	1541,92
338,82	1523,69
339,03	1565,47
339,24	1493,17
339,45	1489,90
339,67	1527,38
339,88	1523,48
340,09	1537,82
340,30	1479,45
340,51	1592,30
340,72	1501,98
340,93	1458,56
341,15	1524,92
341,36	1597,21
341,57	1512,02
341,78	1506,49
341,99	1531,06
342,20	1573,04
342,41	1508,94
342,62	1598,03
342,84	1460,82
343,05	1566,49
343,26	1505,05
343,47	1561,58
343,68	1463,89
343,89	1521,85
344,10	1525,12
344,31	1525,74
344,53	1448,73
344,74	1510,79
344,95	1504,03
345,16	1522,66
345,37	1556,05
345,58	1539,25
345,79	1459,38
346,00	1471,88
346,21	1495,22
346,42	1481,30
346,64	1511,40
346,85	1557,28
347,06	1518,16
347,27	1481,91
347,48	1554,20
347,69	1561,58
347,90	1495,84
348,11	1538,02
348,32	1498,29
348,53	1499,73
348,75	1489,08
348,96	1503,82
349,17	1454,06
349,38	1516,11
349,59	1509,15
349,80	1466,35
350,01	1587,99
350,22	1595,16
350,43	1514,68
350,64	1533,52
350,85	1582,47
351,06	1465,94
351,28	1522,87
351,49	1480,07
351,70	1532,90
351,91	1483,96
352,12	1507,10
352,33	1493,17
352,54	1492,76
352,75	1467,37
352,96	1466,14
353,17	1536,59
353,38	1538,43
353,59	1568,13
353,80	1583,28
354,01	1572,02
354,22	1484,16
354,44	1524,30
354,65	1561,58
354,86	1501,57
355,07	1482,32
355,28	1441,77
355,49	1501,37
355,70	1492,35
355,91	1535,77
356,12	1482,93
356,33	1465,32
356,54	1541,51
356,75	1532,09
356,96	1532,90
357,17	1555,43
357,38	1531,47
357,59	1545,40
357,80	1573,45
358,01	1529,83
358,22	1548,06
358,43	1524,51
358,64	1537,00
358,85	1467,78
359,07	1598,03
359,28	1506,69
359,49	1536,18
359,70	1483,14
359,91	1538,64
360,12	1498,91
360,33	1560,35
360,54	1493,38
360,75	1481,30
360,96	1491,33
361,17	1432,55
361,38	1460,41
361,59	1576,32
361,80	1481,30
362,01	1535,36
362,22	1521,23
362,43	1490,51
362,64	1514,27
362,85	1522,26
363,06	1614,41
363,27	1541,10
363,48	1552,16
363,69	1598,44
363,90	1482,93
364,11	1524,51
364,32	1516,32
364,53	1531,27
364,74	1535,16
364,95	1555,84
365,16	1509,97
365,37	1601,92
365,58	1504,85
365,79	1505,46
366,00	1532,70
366,21	1484,57
366,42	1554,20
366,63	1544,17
366,84	1497,88
367,05	1519,18
367,26	1532,70
367,47	1551,54
367,68	1517,14
367,89	1533,11
368,10	1520,21
368,31	1490,10
368,52	1528,40
368,73	1517,14
368,94	1501,37
369,15	1501,16
369,36	1479,86
369,57	1497,27
369,78	1501,57
369,99	1502,59
370,20	1552,77
370,40	1493,17
370,61	1477,20
370,82	1513,24
371,03	1512,83
371,24	1546,63
371,45	1548,06
371,66	1471,88
371,87	1556,87
372,08	1539,87
372,29	1508,74
372,50	1539,87
372,71	1526,97
372,92	1562,19
373,13	1488,46
373,34	1505,46
373,55	1494,40
373,76	1560,96
373,97	1516,73
374,18	1532,50
374,39	1523,48
374,60	1605,61
374,81	1516,73
375,01	1487,64
375,22	1538,64
375,43	1491,33
375,64	1487,23
375,85	1476,59
376,06	1473,51
376,27	1508,12
376,48	1506,69
376,69	1566,49
376,90	1556,46
377,11	1555,23
377,32	1521,03
377,53	1544,78
377,74	1535,98
377,94	1500,34
378,15	1522,46
378,36	1574,48
378,57	1471,26
378,78	1598,85
378,99	1486,62
379,20	1624,24
379,41	1541,51
379,62	1543,14
379,83	1458,77
380,04	1554,00
380,25	1542,12
380,45	1526,56
380,66	1540,28
380,87	1544,99
381,08	1499,73
381,29	1491,95
381,50	1538,43
381,71	1553,79
381,92	1518,77
382,13	1483,34
382,34	1534,34
382,55	1495,43
382,75	1538,43
382,96	1574,48
383,17	1490,92
383,38	1581,03
383,59	1575,30
383,80	1502,39
384,01	1515,91
384,22	1603,35
384,43	1563,01
384,63	1550,11
384,84	1494,40
385,05	1532,29
385,26	1539,87
385,47	1550,52
385,68	1514,06
385,89	1595,78
386,10	1529,42
386,30	1521,03
386,51	1479,86
386,72	1518,98
386,93	1472,69
387,14	1525,53
387,35	1570,18
387,56	1605,40
387,77	1490,10
387,97	1520,21
388,18	1502,80
388,39	1512,63
388,60	1531,06
388,81	1581,03
389,02	1542,73
389,23	1507,10
389,43	1530,86
389,64	1557,89
389,85	1521,64
390,06	1617,28
390,27	1471,47
390,48	1611,96
390,69	1522,46
390,89	1516,32
391,10	1517,14
391,31	1504,85
391,52	1530,04
391,73	1556,66
391,94	1506,08
392,14	1513,45
392,35	1481,71
392,56	1497,47
392,77	1547,85
392,98	1531,06
393,19	1573,04
393,39	1567,72
393,60	1548,88
393,81	1577,96
394,02	1585,13
394,23	1485,19
394,44	1501,16
394,64	1526,56
394,85	1562,80
395,06	1568,74
395,27	1555,43
395,48	1575,71
395,69	1571,20
395,89	1526,15
396,10	1547,04
396,31	1632,03
396,52	1483,96
396,73	1544,99
396,93	1531,88
397,14	1608,27
397,35	1574,48
397,56	1582,47
397,77	1531,68
397,97	1515,91
398,18	1570,79
398,39	1560,55
398,60	1548,88
398,81	1501,16
399,01	1516,11
399,22	1556,46
399,43	1617,08
399,64	1614,62
399,85	1592,50
400,05	1510,79
400,26	1480,48
400,47	1551,75
400,68	1526,35
400,89	1676,06
401,09	1526,15
401,30	1555,23
401,51	1562,60
401,72	1564,44
401,93	1653,12
402,13	1572,43
402,34	1618,71
402,55	1568,74
402,76	1583,28
402,96	1568,95
403,17	1565,47
403,38	1620,56
403,59	1614,82
403,80	1626,29
404,00	1637,97
404,21	1582,26
404,42	1571,41
404,63	1542,53
404,83	1587,79
405,04	1630,80
405,25	1641,24
405,46	1673,40
405,66	1611,14
405,87	1632,03
406,08	1600,49
406,29	1691,01
406,49	1594,75
406,70	1677,08
406,91	1553,18
407,12	1631,21
407,32	1704,52
407,53	1643,29
407,74	1686,71
407,95	1716,81
408,15	1650,66
408,36	1635,51
408,57	1687,53
408,78	1741,39
408,98	1703,09
409,19	1772,72
409,40	1701,45
409,61	1732,58
409,81	1776,61
410,02	1736,27
410,23	1769,65
410,44	1801,19
410,64	1748,15
410,85	1769,24
411,06	1781,32
411,26	1875,12
411,47	1846,45
411,68	1900,31
411,89	1837,23
412,09	1893,35
412,30	1909,73
412,51	1891,09
412,72	1919,15
412,92	1978,34
413,13	1979,77
413,34	1960,73
413,54	1990,42
413,75	2025,24
413,96	2038,14
414,17	2016,02
414,37	2089,34
414,58	2180,47
414,79	2164,70
414,99	2164,09
415,20	2228,39
415,41	2161,63
415,61	2247,85
415,82	2338,78
416,03	2314,00
416,24	2333,25
416,44	2414,35
416,65	2475,79
416,86	2504,05
417,06	2419,68
417,27	2510,40
417,48	2593,96
417,68	2598,26
417,89	2671,17
418,10	2647,61
418,30	2805,10
418,51	2785,65
418,72	2831,52
418,92	2960,75
419,13	2961,57
419,34	3034,48
419,55	3116,80
419,75	3597,67
419,96	3225,35
420,17	3379,35
420,37	3383,45
420,58	3388,77
420,79	3442,64
420,99	3612,21
421,20	3804,31
421,41	3732,63
421,61	3848,34
421,82	3796,52
422,03	4058,66
422,23	4056,00
422,44	4209,80
422,65	4368,73
422,85	4349,07
423,06	4504,51
423,26	4681,25
423,47	4873,55
423,68	4817,85
423,88	5039,44
424,09	5093,50
424,30	5298,71
424,50	5386,98
424,71	5594,85
424,92	5658,74
425,12	5815,62
425,33	6084,11
425,54	6127,93
425,74	6279,89
425,95	6406,87
426,15	6754,61
426,36	6674,74
426,57	7110,75
426,77	7076,96
426,98	7373,92
427,19	7441,70
427,39	7801,33
427,60	7836,96
427,81	8056,09
428,01	8221,57
428,22	8801,96
428,42	8422,68
428,63	8998,37
428,84	9186,37
429,04	9343,24
429,25	9559,51
429,45	9677,27
429,66	10221,82
429,87	10643,29
430,07	10723,98
430,28	10950,28
430,49	11338,37
430,69	11650,48
430,90	11833,37
431,10	11923,07
431,31	12400,66
431,52	13068,50
431,72	12833,19
431,93	13053,55
432,13	13723,23
432,34	14297,07
432,55	14099,45
432,75	14963,28
432,96	15323,72
433,16	15458,48
433,37	16157,24
433,58	16635,24
433,78	16981,14
433,99	16219,71
434,19	17524,67
434,40	17945,12
434,60	18577,53
434,81	18701,03
435,02	18943,71
435,22	19519,60
435,43	19433,18
435,63	19828,23
435,84	20741,62
436,05	21190,33
436,25	20708,04
436,46	22334,74
436,66	22603,64
436,87	23051,73
437,07	22764,61
437,28	23400,30
437,48	24334,99
437,69	24337,24
437,90	25168,10
438,10	25686,03
438,31	26102,59
438,51	28025,84
438,72	27920,98
438,92	28483,56
439,13	29238,65
439,34	29637,18
439,54	30388,99
439,75	30587,23
439,95	31009,93
440,16	32290,94
440,36	32818,29
440,57	33309,19
440,77	34844,96
440,98	34614,77
441,18	34709,59
441,39	35815,70
441,60	37384,24
441,80	37503,22
442,01	36869,99
442,21	39087,12
442,42	38625,31
442,62	40090,63
442,83	40416,05
443,03	41701,56
443,24	42142,28
443,44	43099,91
443,65	44154,41
443,85	44576,29
444,06	45490,71
444,26	46813,90
444,47	47095,29
444,67	49712,60
444,88	49258,56
445,09	49465,20
445,29	51211,10
445,50	51423,47
445,70	51496,58
445,91	52820,19
446,11	52169,34
446,32	54319,50
446,52	55266,28
446,73	55723,80
446,93	57237,04
447,14	57492,42
447,34	58820,12
447,55	57387,36
447,75	59576,84
447,96	60956,36
448,16	59876,67
448,37	60355,89
448,57	60541,44
448,78	61493,33
448,98	61213,17
449,19	61248,19
449,39	63054,91
449,60	62073,73
449,80	63808,77
450,01	64191,12
450,21	63574,68
450,42	64370,93
450,62	63697,15
450,83	64112,07
451,03	63871,64
451,23	64744,28
451,44	64934,13
451,64	65482,78
451,85	64517,16
452,05	65437,72
452,26	64994,54
452,46	63622,20
452,67	63780,71
452,87	62579,99
453,08	63159,15
453,28	59735,15
453,49	63187,21
453,69	60301,42
453,90	61221,36
454,10	60643,22
454,31	60351,80
454,51	58805,78
454,71	58875,82
454,92	57900,58
455,12	57396,58
455,33	57722,82
455,53	58240,14
455,74	58898,15
455,94	57882,56
456,15	58185,45
456,35	58703,39
456,55	56507,96
456,76	56708,05
456,96	58307,31
457,17	53822,26
457,37	57138,74
457,58	54433,78
457,78	55376,67
457,99	53594,11
458,19	50451,71
458,39	51478,56
458,60	53032,15
458,80	50576,64
459,01	49190,57
459,21	47717,47
459,42	48602,60
459,62	45617,89
459,82	48642,94
460,03	46910,57
460,23	45932,05
460,44	45567,71
460,64	42196,14
460,85	45076,00
461,05	41484,27
461,25	41061,77
461,46	43262,11
461,66	41531,78
461,87	40118,68
462,07	39648,88
462,27	37606,44
462,48	36987,54
462,68	37385,26
462,89	36576,31
463,09	35241,04
463,29	35796,24
463,50	34992,62
463,70	35371,70
463,91	33623,35
464,11	33748,48
464,31	33694,82
464,52	33464,63
464,72	33976,62
464,93	32775,49
465,13	32917,21
465,33	31658,32
465,54	30796,33
465,74	30180,30
465,95	30923,71
466,15	30286,59
466,35	30554,46
466,56	29889,08
466,76	29612,60
466,96	28913,43
467,17	28808,57
467,37	28473,73
467,58	28149,54
467,78	27661,50
467,98	27793,39
468,19	26742,99
468,39	27379,29
468,59	27189,86
468,80	26200,28
469,00	25925,85
469,21	25514,62
469,41	25333,99
469,61	25664,33
469,82	24531,39
470,02	25165,44
470,22	25193,50
470,43	24538,15
470,63	23755,00
470,83	24690,52
471,04	23372,85
471,24	23198,78
471,45	22829,12
471,65	23048,86
471,85	22158,00
472,06	22637,22
472,26	22126,05
472,46	22016,48
472,67	22124,82
472,87	21732,63
473,07	21432,81
473,28	20858,97
473,48	21185,42
473,68	20680,59
473,89	20430,33
474,09	20409,65
474,29	19992,89
474,50	20064,97
474,70	19626,09
474,90	19812,05
475,11	19519,19
475,31	19169,81
475,51	18964,60
475,72	18844,79
475,92	18472,47
476,12	18075,17
476,33	18288,77
476,53	18025,40
476,73	18053,05
476,93	18000,42
477,14	17611,30
477,34	17458,73
477,54	17376,61
477,75	17256,80
477,95	16958,61
478,15	16949,19
478,36	17062,65
478,56	16713,27
478,76	16746,24
478,97	16427,78
479,17	16128,57
479,37	15990,34
479,57	15960,64
479,78	15756,25
479,98	15706,28
480,18	15741,51
480,39	15619,65
480,59	15576,44
480,79	15336,01
480,99	15187,94
481,20	15214,56
481,40	15158,25
481,60	14999,94
481,81	14867,23
482,01	14737,39
482,21	14575,60
482,41	14445,35
482,62	14360,56
482,82	14320,83
483,02	14545,29
483,23	14268,20
483,43	14331,28
483,63	14017,32
483,83	13975,75
484,04	14188,94
484,24	13920,25
484,44	13999,71
484,64	13881,75
484,85	13815,80
485,05	13829,52
485,25	13950,97
485,45	13707,67
485,66	13729,79
485,86	13578,85
486,06	13498,57
486,26	13513,52
486,47	13455,77
486,67	13410,71
486,87	13464,37
487,07	13376,92
487,28	13052,32
487,48	13169,46
487,68	13311,59
487,88	13204,07
488,09	13186,26
488,29	13007,47
488,49	13234,18
488,69	13165,37
488,90	13100,65
489,10	12991,90
489,30	12902,41
489,50	12851,00
489,71	12967,33
489,91	12985,35
490,11	12861,86
490,31	12827,66
490,52	12817,01
490,72	12781,17
490,92	13035,94
491,12	12898,52
491,32	12873,74
491,53	12917,56
491,73	12879,27
491,93	12870,66
492,13	12936,61
492,33	12897,49
492,54	12800,42
492,74	12994,77
492,94	12828,68
493,14	13021,19
493,35	13042,08
493,55	12968,15
493,75	13161,27
493,95	13104,54
494,15	13025,29
494,36	13292,96
494,56	13151,65
494,76	13238,89
494,96	13288,86
495,16	13305,86
495,37	13397,20
495,57	13423,82
495,77	13443,28
495,97	13544,86
496,17	13688,83
496,37	13574,14
496,58	13743,10
496,78	13556,94
496,98	13868,23
497,18	13946,67
497,38	14034,32
497,59	14226,01
497,79	14140,41
497,99	14257,34
498,19	14351,96
498,39	14438,79
498,59	14557,99
498,80	14526,04
499,00	14560,44
499,20	14622,70
499,40	14513,54
499,60	14709,33
499,80	14752,54
500,01	14797,60
500,21	14866,41
500,41	15084,31
500,61	15253,07
500,81	15253,89
501,01	15424,07
501,22	15397,04
501,42	15519,51
501,62	15551,05
501,82	15695,22
502,02	15808,89
502,22	15891,83
502,42	15954,50
502,63	16257,60
502,83	16219,91
503,03	16292,82
503,23	16363,68
503,43	16249,81
503,63	16460,34
503,83	16527,93
504,04	16450,92
504,24	16762,62
504,44	16686,64
504,64	16788,22
504,84	16781,06
505,04	16706,51
505,24	16842,29
505,44	16960,87
505,65	17055,28
505,85	17089,68
506,05	16973,16
506,25	16990,36
506,45	16970,90
506,65	17018,83
506,85	17243,28
507,05	17537,58
507,26	17607,62
507,46	17848,46
507,66	17998,57
507,86	18007,79
508,06	18457,52
508,26	18468,58
508,46	18763,08
508,66	19074,17
508,86	19387,92
509,06	19669,31
509,27	19790,14
509,47	20064,56
509,67	20169,63
509,87	20367,05
510,07	20616,70
510,27	20763,13
510,47	20894,20
510,67	20903,62
510,87	20914,47
511,07	21155,72
511,28	21298,67
511,48	21295,60
511,68	21730,18
511,88	22073,83
512,08	22181,34
512,28	22385,73
512,48	22589,30
512,68	22624,12
512,88	22893,63
513,08	23205,12
513,28	23317,15
513,48	23409,92
513,68	23665,71
513,89	23807,64
514,09	23659,16
514,29	24109,92
514,49	24089,03
514,69	24185,28
514,89	24270,48
515,09	24451,93
515,29	24611,46
515,49	24600,00
515,69	24786,57
515,89	24939,34
516,09	25243,47
516,29	25230,57
516,49	25331,12
516,69	25657,77
516,89	25714,09
517,09	25869,74
517,29	26107,10
517,50	26165,26
517,70	26513,82
517,90	26555,19
518,10	26618,68
518,30	27188,01
518,50	26682,78
518,70	27023,15
518,90	27591,67
519,10	27548,46
519,30	27826,37
519,50	27970,54
519,70	28343,68
519,90	28648,63
520,10	29031,80
520,30	29024,02
520,50	29156,93
520,70	29500,38
520,90	29541,33
521,10	29654,38
521,30	29758,83
521,50	30433,84
521,70	30253,82
521,90	30398,82
522,10	30723,42
522,30	30401,07
522,50	30750,25
522,70	30765,00
522,90	30925,35
523,10	31010,14
523,30	31073,83
523,50	31265,52
523,70	31375,50
523,90	31560,63
524,10	31760,72
524,30	31600,36
524,50	31841,20
524,70	31955,07
524,90	31910,02
525,10	32289,71
525,30	32192,23
525,50	32680,87
525,70	32781,63
525,90	32710,77
526,10	32868,06
526,30	33152,52
526,50	33094,77
526,70	33049,10
526,90	33052,17
527,10	32869,49
527,30	33217,23
527,50	33488,59
527,70	33465,86
527,90	33481,01
528,10	33502,52
528,30	33695,23
528,50	33866,44
528,70	33798,65
528,90	34123,46
529,10	34296,92
529,30	34150,29
529,50	34395,02
529,70	34234,05
529,90	34487,38
530,10	34528,75
530,29	34299,38
530,49	34580,16
530,69	34580,98
530,89	34572,78
531,09	34435,16
531,29	34459,33
531,49	34808,92
531,69	34801,13
531,89	35147,03
532,09	35274,83
532,29	35058,56
532,49	35062,45
532,69	35347,53
532,89	35486,18
533,09	35361,05
533,29	35602,71
533,49	35748,93
533,68	35685,24
533,88	36243,11
534,08	35620,73
534,28	35477,99
534,48	35414,29
534,68	35359,61
534,88	35225,88
535,08	35486,79
535,28	35859,93
535,48	35807,50
535,68	35617,66
535,88	35841,09
536,08	35864,23
536,27	36057,36
536,47	35590,83
536,67	36200,92
536,87	36005,95
537,07	35960,69
537,27	36209,32
537,47	36054,49
537,67	35896,80
537,87	36169,38
538,07	36668,06
538,27	36376,43
538,46	36625,26
538,66	36302,50
538,86	36192,52
539,06	36681,99
539,26	36684,45
539,46	36604,98
539,66	36925,29
539,86	36772,71
540,06	36901,12
540,25	36702,26
540,45	36638,78
540,65	36589,42
540,85	36674,61
541,05	36885,15
541,25	36698,37
541,45	36796,26
541,65	36566,28
541,85	36582,05
542,04	36656,59
542,24	36614,20
542,44	36518,97
542,64	36414,73
542,84	36369,88
543,04	36213,21
543,24	36045,27
543,43	36252,94
543,63	36238,40
543,83	36180,03
544,03	35949,84
544,23	36041,59
544,43	36160,78
544,63	36034,21
544,82	36378,68
545,02	36112,86
545,22	36455,89
545,42	35934,48
545,62	36357,38
545,82	36207,88
546,02	36111,63
546,21	36131,90
546,41	36156,07
546,61	36003,29
546,81	36440,74
547,01	35933,86
547,21	36082,75
547,40	35798,90
547,60	35590,83
547,80	35566,87
548,00	35845,39
548,20	35856,25
548,40	35831,88
548,59	35979,74
548,79	36010,46
548,99	36204,81
549,19	35763,88
549,39	35421,67
549,59	35713,30
549,78	35121,84
549,98	35610,29
550,18	35310,46
550,38	35501,95
550,58	35386,85
550,77	35411,02
550,97	35367,60
551,17	35076,38
551,37	35484,13
551,57	35214,62
551,76	35233,46
551,96	35143,96
552,16	35028,46
552,36	35235,10
552,56	35112,01
552,75	35209,09
552,95	35271,76
553,15	35432,52
553,35	35396,27
553,55	34988,73
553,74	35501,54
553,94	34947,36
554,14	34867,49
554,34	34743,99
554,54	34755,87
554,73	34807,69
554,93	34615,18
555,13	34693,61
555,33	34341,77
555,53	34428,40
555,72	34169,95
555,92	34375,16
556,12	34600,43
556,32	34488,61
556,51	34425,13
556,71	34552,71
556,91	34243,88
557,11	34195,14
557,30	34195,55
557,50	34080,86
557,70	33828,76
557,90	34117,73
558,10	33946,31
558,29	33557,81
558,49	33890,40
558,69	33331,51
558,89	33349,94
559,08	33485,52
559,28	33454,59
559,48	33262,49
559,68	33413,43
559,87	33624,78
560,07	33556,99
560,27	33337,45
560,47	33240,17
560,66	33353,83
560,86	33288,30
561,06	33236,69
561,25	33330,28
561,45	33478,35
561,65	33352,81
561,85	33322,50
562,04	33357,11
562,24	33329,46
562,44	33260,65
562,64	33058,31
562,83	33112,99
563,03	32809,07
563,23	32833,65
563,42	32601,82
563,62	32854,54
563,82	32511,09
564,02	32546,52
564,21	32334,97
564,41	32217,83
564,61	32255,92
564,80	32323,30
565,00	32201,03
565,20	32074,47
565,40	31983,33
565,59	31853,29
565,79	32055,63
565,99	31938,48
566,18	31861,48
566,38	31770,96
566,58	31613,06
566,78	31871,72
566,97	31903,26
567,17	32131,40
567,37	31999,51
567,56	32076,92
567,76	31738,19
567,96	32017,33
568,15	31702,97
568,35	31650,54
568,55	31911,04
568,74	31624,73
568,94	31823,39
569,14	31826,25
569,33	31557,76
569,53	31861,27
569,73	31998,49
569,92	31738,19
570,12	31707,88
570,32	31722,63
570,52	31235,62
570,71	31549,37
570,91	31318,15
571,11	31368,94
571,30	31202,44
571,50	31117,86
571,70	31246,47
571,89	31023,65
572,09	31194,25
572,28	31092,88
572,48	31109,87
572,68	31117,66
572,87	31211,04
573,07	31471,14
573,27	31181,14
573,46	31239,72
573,66	31440,21
573,86	31177,25
574,05	31324,50
574,25	31083,86
574,45	30822,34
574,64	31187,70
574,84	31180,73
575,04	31070,55
575,23	31081,00
575,43	31145,10
575,62	31084,48
575,82	30627,99
576,02	30173,13
576,21	30295,40
576,41	30214,91
576,61	30182,55
576,80	29954,00
577,00	30140,37
577,19	30008,07
577,39	30325,50
577,59	30266,11
577,78	30074,01
577,98	30186,65
578,18	29958,51
578,37	29869,42
578,57	30028,75
578,76	30059,27
578,96	29723,40
579,16	29772,14
579,35	30041,86
579,55	29602,77
579,74	29787,91
579,94	29641,07
580,14	29903,62
580,33	29784,02
580,53	29792,01
580,72	29641,07
580,92	29614,24
581,12	29410,67
581,31	29409,24
581,51	29657,25
581,70	29333,06
581,90	29632,67
582,10	29378,32
582,29	29561,20
582,49	29323,43
582,68	29568,37
582,88	29603,80
583,07	29626,74
583,27	29372,99
583,47	29504,88
583,66	29432,79
583,86	28857,93
584,05	28948,65
584,25	28641,46
584,44	28877,79
584,64	28497,69
584,84	28615,86
585,03	28442,19
585,23	28339,38
585,42	28400,41
585,62	28506,50
585,81	28736,48
586,01	28589,03
586,20	28821,88
586,40	28692,45
586,60	28684,67
586,79	28953,57
586,99	28684,06
587,18	28784,82
587,38	28634,90
587,57	28551,35
587,77	28440,96
587,96	28528,00
588,16	28355,36
588,35	28364,37
588,55	28433,79
588,75	28269,96
588,94	28227,36
589,14	27995,12
589,33	27781,31
589,53	28040,58
589,72	27528,39
589,92	28047,14
590,11	27574,26
590,31	27832,30
590,50	27615,63
590,70	27423,12
590,89	27504,43
591,09	27189,04
591,28	27003,90
591,48	27156,88
591,67	26759,99
591,87	26786,61
592,06	26760,60
592,26	26596,56
592,45	26372,51
592,65	26645,30
592,84	26219,32
593,04	26212,77
593,23	26077,20
593,43	26222,60
593,62	25892,88
593,82	25809,94
594,01	25656,13
594,21	25830,21
594,40	25660,64
594,60	25564,59
594,79	25693,41
594,99	25504,99
595,18	25554,35
595,38	25476,32
595,57	25229,54
595,77	25518,92
595,96	25420,41
596,16	25309,21
596,35	25056,49
596,55	25006,31
596,74	25063,45
596,94	24866,03
597,13	24774,89
597,33	24740,49
597,52	24556,99
597,72	24606,55
597,91	24682,94
598,11	24587,91
598,30	24422,23
598,50	24553,30
598,69	24298,53
598,88	24351,58
599,08	23883,21
599,27	24108,69
599,47	23804,36
599,66	23909,22
599,86	23562,49
600,05	23752,75
600,25	23733,09
600,44	23383,91
600,64	23549,18
600,83	23528,09
601,02	23525,84
601,22	23586,87
601,41	23275,16
601,61	23345,61
601,80	23240,35
602,00	23305,27
602,19	23018,96
602,38	23022,45
602,58	22772,80
602,77	23070,16
602,97	22950,56
603,16	23029,61
603,36	22525,40
603,55	22630,67
603,74	22233,36
603,94	22267,56
604,13	22196,50
604,33	22169,67
604,52	22072,80
604,72	22144,48
604,91	22052,94
605,10	22365,46
605,30	22120,11
605,49	22223,74
605,69	22234,39
605,88	22053,96
606,07	22265,52
606,27	22156,36
606,46	21956,07
606,66	22062,56
606,85	21602,18
607,04	21706,22
607,24	21410,49
607,43	21570,85
607,63	21256,89
607,82	21060,08
608,01	20963,62
608,21	20598,26
608,40	20544,61
608,60	20202,60
608,79	20098,56
608,98	19964,01
609,18	20218,57
609,37	19949,26
609,57	19755,94
609,76	19860,79
609,95	19685,28
610,15	19811,03
610,34	19628,96
610,53	19471,27
610,73	19444,64
610,92	19598,24
611,11	19464,51
611,31	19640,23
611,50	19427,44
611,70	19579,61
611,89	19453,86
612,08	19545,61
612,28	19447,31
612,47	19475,57
612,66	19392,83
612,86	19425,19
613,05	19238,41
613,24	19287,16
613,44	19248,24
613,63	19203,60
613,82	19217,52
614,02	19275,89
614,21	19067,61
614,41	19202,16
614,60	19143,59
614,79	18950,88
614,99	18955,38
615,18	19141,95
615,37	18926,30
615,57	19282,44
615,76	18939,41
615,95	18844,38
616,15	18698,98
616,34	18996,55
616,53	18901,73
616,73	18948,01
616,92	18723,14
617,11	18713,52
617,30	18688,94
617,50	18632,62
617,69	18734,41
617,88	18811,21
618,08	18605,18
618,27	18750,79
618,46	18574,26
618,66	18465,10
618,85	18447,08
619,04	18451,79
619,24	18478,62
619,43	18438,27
619,62	18275,66
619,82	18204,80
620,01	18253,55
620,20	18192,93
620,39	17984,03
620,59	18095,24
620,78	18046,70
620,97	18163,64
621,17	17935,29
621,36	18038,10
621,55	17814,46
621,74	18014,96
621,94	17749,13
622,13	17980,96
622,32	17806,88
622,52	17728,65
622,71	17825,32
622,90	17800,13
623,09	17619,08
623,29	17778,01
623,48	17653,29
623,67	17786,61
623,86	17602,50
624,06	17557,03
624,25	17593,49
624,44	17551,71
624,64	17436,82
624,83	17356,94
625,02	17219,32
625,21	17372,30
625,41	17328,68
625,60	17323,77
625,79	17202,53
625,98	17234,68
626,18	17405,28
626,37	17277,89
626,56	17110,16
626,75	17271,13
626,95	16795,39
627,14	16837,17
627,33	16997,94
627,52	16759,14
627,72	16737,23
627,91	16746,24
628,10	16601,86
628,29	16511,95
628,49	16402,18
628,68	16374,74
628,87	16313,91
629,06	16462,39
629,25	16180,18
629,45	16164,62
629,64	16254,73
629,83	16216,84
630,02	16026,17
630,22	16092,32
630,41	16018,80
630,60	15979,89
630,79	15832,85
630,98	15802,33
631,18	15646,69
631,37	15707,72
631,56	15700,34
631,75	15754,00
631,94	15436,97
632,14	15400,52
632,33	15381,27
632,52	15367,96
632,71	15620,88
632,90	15266,17
633,10	15218,05
633,29	15039,67
633,48	14937,06
633,67	14905,94
633,86	14840,81
634,06	14784,08
634,25	14648,92
634,44	14665,71
634,63	14571,91
634,82	14524,60
635,02	14210,65
635,21	14318,78
635,40	14103,75
635,59	14084,09
635,78	14113,17
635,97	14020,60
636,17	13833,62
636,36	13995,41
636,55	13880,31
636,74	13901,20
636,93	13661,18
637,12	13787,74
637,32	13887,48
637,51	13661,59
637,70	13709,92
637,89	13797,58
638,08	13646,43
638,27	13768,08
638,47	13626,98
638,66	13572,09
638,85	13329,41
639,04	13516,80
639,23	13341,70
639,42	13418,50
639,62	13406,41
639,81	13301,97
640,00	13231,31
640,19	13082,22
640,38	13057,44
640,57	12961,80
640,76	12860,01
640,95	12773,39
641,15	12676,52
641,34	12774,21
641,53	12613,64
641,72	12628,39
641,91	12602,59
642,10	12519,23
642,29	12448,99
642,49	12451,65
642,68	12272,66
642,87	12420,32
643,06	12306,86
643,25	12292,11
643,44	12150,19
643,63	12120,29
643,82	12043,49
644,01	12130,32
644,21	12052,30
644,40	12125,00
644,59	11910,78
644,78	11971,61
644,97	11896,86
645,16	11838,28
645,35	11733,63
645,54	11817,60
645,73	11698,41
645,92	11702,71
646,12	11685,10
646,31	11606,04
646,50	11519,01
646,69	11599,90
646,88	11421,52
647,07	11500,57
647,26	11331,41
647,45	11296,39
647,64	11219,59
647,83	11233,31
648,02	11218,98
648,22	11190,10
648,41	11033,02
648,60	11035,27
648,79	11066,81
648,98	11003,94
649,17	10885,77
649,36	10851,37
649,55	10826,79
649,74	10782,97
649,93	10662,95
650,12	10686,51
650,31	10689,58
650,50	10572,43
650,69	10477,20
650,88	10638,99
651,08	10377,26
651,27	10574,69
651,46	10416,99
651,65	10330,77
651,84	10253,57
652,03	10347,57
652,22	10165,91
652,41	10252,13
652,60	10291,66
652,79	10224,28
652,98	10088,70
653,17	10116,15
653,36	10011,29
653,55	10016,21
653,74	9992,45
653,93	9927,73
654,12	9674,60
654,31	9787,24
654,50	9773,11
654,69	9747,72
654,88	9726,21
655,07	9551,73
655,26	9404,07
655,45	9429,26
655,64	9387,89
655,83	9440,11
656,02	9431,92
656,21	9304,74
656,40	9226,71
656,59	9349,39
656,78	9139,47
656,97	9208,90
657,17	9186,78
657,36	9110,59
657,55	9080,49
657,74	9035,23
657,93	9029,29
658,12	8964,37
658,31	8910,92
658,50	8875,49
658,69	8719,23
658,87	8717,18
659,06	8615,60
659,25	8635,87
659,44	8565,42
659,63	8583,86
659,82	8459,75
660,01	8457,91
660,20	8377,01
660,39	8388,48
660,58	8235,09
660,77	8309,63
660,96	8276,87
661,15	8157,88
661,34	8203,34
661,53	8173,03
661,72	8150,10
661,91	8138,42
662,10	7999,78
662,29	8046,26
662,48	7956,97
662,67	8047,49
662,86	7883,45
663,05	7963,32
663,24	8036,23
663,43	7834,30
663,62	7914,17
663,81	7814,02
664,00	7876,08
664,19	7743,98
664,38	7659,20
664,57	7603,29
664,76	7578,30
664,94	7545,74
665,13	7408,32
665,32	7416,51
665,51	7472,63
665,70	7283,19
665,89	7339,92
666,08	7327,22
666,27	7229,74
666,46	7289,54
666,65	7232,61
666,84	7164,00
667,03	7164,61
667,22	7071,23
667,41	7183,86
667,60	7083,92
667,78	7039,69
667,97	7055,05
668,16	7009,38
668,35	6983,98
668,54	6881,38
668,73	6919,47
668,92	6857,21
669,11	6831,41
669,30	6887,73
669,49	6840,22
669,68	6851,07
669,86	6692,15
670,05	6715,90
670,24	6612,28
670,43	6654,87
670,62	6665,11
670,81	6593,23
671,00	6564,97
671,19	6581,97
671,38	6465,44
671,57	6544,90
671,75	6493,90
671,94	6456,63
672,13	6517,46
672,32	6413,83
672,51	6370,41
672,70	6508,85
672,89	6380,65
673,08	6346,25
673,26	6361,81
673,45	6323,31
673,64	6343,38
673,83	6269,65
674,02	6228,49
674,21	6290,95
674,40	6295,25
674,59	6214,36
674,77	6197,56
674,96	6179,13
675,15	6088,61
675,34	5987,44
675,53	6065,06
675,72	5864,77
675,91	5972,70
676,09	5936,65
676,28	6055,02
676,47	5850,23
676,66	5773,43
676,85	5900,20
677,04	5907,78
677,22	5858,62
677,41	5817,66
677,60	5895,90
677,79	5727,35
677,98	5713,42
678,17	5654,44
678,36	5718,54
678,54	5667,14
678,73	5693,35
678,92	5590,34
679,11	5655,26
679,30	5561,26
679,48	5582,35
679,67	5558,19
679,86	5546,10
680,05	5549,18
680,24	5431,42
680,43	5367,32
680,61	5324,10
680,80	5318,57
680,99	5310,79
681,18	5266,97
681,37	5294,00
681,55	5319,80
681,74	5266,76
681,93	5162,31
682,12	5120,95
682,31	5088,18
682,49	5095,96
682,68	5097,19
682,87	5053,36
683,06	5106,20
683,25	5075,07
683,43	5105,18
683,62	4981,48
683,81	5102,10
684,00	5060,33
684,19	4912,05
684,37	4943,18
684,56	4851,84
684,75	4934,58
684,94	4876,62
685,12	4903,66
685,31	4879,70
685,50	4839,76
685,69	4830,95
685,88	4758,86
686,06	4756,20
686,25	4701,93
686,44	4697,02
686,63	4658,92
686,81	4754,56
687,00	4618,58
687,19	4611,21
687,38	4621,24
687,56	4550,59
687,75	4609,98
687,94	4551,41
688,13	4492,01
688,31	4497,34
688,50	4467,64
688,69	4504,10
688,88	4455,97
689,06	4496,72
689,25	4383,88
689,44	4357,46
689,63	4395,35
689,81	4377,94
690,00	4287,22
690,19	4321,01
690,38	4311,59
690,56	4255,68
690,75	4351,73
690,94	4254,86
691,13	4193,01
691,31	4262,03
691,50	4177,45
691,69	4256,09
691,87	4168,23
692,06	4175,81
692,25	4179,29
692,44	4111,91
692,62	4085,49
692,81	4259,98
693,00	4124,40
693,18	4109,45
693,37	4146,11
693,56	4039,00
693,75	4049,24
693,93	4118,67
694,12	4090,20
694,31	4002,55
694,49	3962,00
694,68	3980,64
694,87	3970,19
695,05	3954,42
695,24	3949,10
695,43	3906,91
695,62	3881,72
695,80	3873,73
695,99	3916,74
696,18	3860,63
696,36	3911,83
696,55	3856,73
696,74	3742,87
696,92	3898,10
697,11	3831,54
697,30	3840,97
697,48	3786,49
697,67	3731,19
697,86	3756,79
698,04	3668,32
698,23	3660,95
698,42	3728,94
698,60	3678,77
698,79	3669,35
698,98	3626,95
699,16	3606,27
699,35	3589,68
699,54	3640,06
699,72	3588,04
699,91	3706,21
700,10	3571,45
700,28	3614,87
700,47	3693,92
700,66	3589,47
700,84	3536,02
701,03	3487,69
701,21	3573,09
701,40	3520,25
701,59	3559,37
701,77	3543,60
701,96	3531,11
702,15	3493,63
702,33	3459,43
702,52	3469,46
702,71	3523,53
702,89	3443,86
703,08	3458,20
703,26	3492,20
703,45	3508,99
703,64	3412,53
703,82	3446,53
704,01	3371,57
704,20	3426,25
704,38	3386,32
704,57	3311,57
704,75	3316,69
704,94	3327,54
705,13	3312,59
705,31	3351,50
705,50	3312,79
705,68	3354,16
705,87	3340,24
706,06	3307,67
706,24	3265,69
706,43	3217,56
706,61	3277,57
706,80	3223,71
706,99	3266,51
707,17	3286,99
707,36	3248,69
707,54	3218,18
707,73	3223,71
707,92	3196,47
708,10	3149,57
708,29	3183,16
708,47	3179,88
708,66	3160,63
708,84	3161,04
709,03	3161,65
709,22	3149,37
709,40	3133,60
709,59	3176,40
709,77	3178,65
709,96	3159,61
710,14	3047,17
710,33	3110,05
710,52	3062,33
710,70	3151,82
710,89	3041,23
711,07	3042,26
711,26	3064,79
711,44	3062,74
711,63	2998,84
711,81	3019,93
712,00	2931,46
712,19	2988,60
712,37	2992,90
712,56	2958,09
712,74	2932,90
712,93	2947,85
713,11	2917,74
713,30	2910,78
713,48	2921,02
713,67	2900,95
713,85	2853,43
714,04	2919,58
714,22	2913,65
714,41	2915,90
714,59	2895,83
714,78	2875,35
714,97	2855,07
715,15	2842,17
715,34	2872,07
715,52	2795,48
715,71	2827,84
715,89	2789,95
716,08	2784,62
716,26	2731,99
716,45	2723,59
716,63	2791,59
716,82	2756,98
717,00	2727,48
717,19	2785,44
717,37	2729,12
717,56	2715,40
717,74	2716,84
717,93	2727,48
718,11	2711,72
718,30	2615,05
718,48	2709,05
718,67	2758,00
718,85	2683,86
719,04	2676,29
719,22	2633,89
719,41	2703,52
719,59	2717,04
719,78	2626,11
719,96	2609,93
720,15	2650,28
720,33	2659,90
720,52	2640,45
720,70	2541,12
720,88	2658,88
721,07	2561,39
721,25	2592,93
721,44	2543,37
721,62	2585,36
721,81	2542,76
721,99	2503,85
722,18	2543,17
722,36	2525,96
722,55	2555,66
722,73	2527,60
722,92	2561,60
723,10	2515,32
723,28	2522,69
723,47	2548,29
723,65	2538,25
723,84	2512,86
724,02	2451,01
724,21	2494,02
724,39	2446,71
724,58	2452,03
724,76	2506,71
724,94	2407,80
725,13	2469,85
725,31	2431,14
725,50	2487,67
725,68	2435,44
725,87	2417,22
726,05	2420,08
726,23	2406,57
726,42	2420,90
726,60	2405,34
726,79	2364,99
726,97	2413,74
727,16	2462,07
727,34	2364,38
727,52	2344,72
727,71	2406,36
727,89	2320,14
728,08	2318,30
728,26	2351,89
728,44	2382,20
728,63	2423,98
728,81	2317,89
729,00	2317,28
729,18	2353,73
729,36	2327,72
729,55	2325,88
729,73	2346,15
729,92	2323,42
730,10	2304,37
730,28	2291,27
730,47	2267,92
730,65	2316,66
730,84	2344,92
731,02	2238,43
731,20	2320,96
731,39	2326,08
731,57	2327,11
731,75	2296,59
731,94	2255,02
732,12	2308,27
732,31	2243,96
732,49	2212,63
732,67	2235,56
732,86	2176,38
733,04	2229,01
733,22	2176,58
733,41	2190,71
733,59	2221,02
733,78	2204,23
733,96	2219,18
734,14	2131,94
734,33	2152,82
734,51	2220,82
734,69	2200,75
734,88	2160,61
735,06	2154,46
735,24	2166,96
735,43	2209,35
735,61	2124,77
735,79	2211,81
735,98	2175,76
736,16	2231,26
736,34	2131,53
736,53	2153,64
736,71	2169,82
736,89	2119,85
737,08	2156,51
737,26	2129,48
737,44	2103,06
737,63	2105,11
737,81	2051,86
737,99	2140,33
738,18	2094,05
738,36	2181,50
738,54	2123,33
738,73	2116,37
738,91	2143,40
739,09	2057,80
739,28	2069,68
739,46	2041,42
739,64	2044,69
739,82	2096,92
740,01	2045,72
740,19	2165,52
740,37	2096,51
740,56	2074,18
740,74	2050,84
740,92	2052,47
741,11	1979,98
741,29	2069,06
741,47	2123,33
741,65	2016,43
741,84	2044,69
742,02	2101,42
742,20	2038,75
742,39	1993,08
742,57	2036,91
742,75	1985,71
742,93	2000,05
743,12	2002,50
743,30	1968,10
743,48	1964,62
743,67	1985,92
743,85	1927,75
744,03	2038,55
744,21	1979,36
744,40	1959,50
744,58	1980,59
744,76	1956,01
744,94	1978,34
745,13	1962,57
745,31	1945,37
745,49	1945,16
745,67	1931,64
745,86	2000,66
746,04	1963,39
746,22	1978,75
746,40	1920,18
746,59	1937,17
746,77	1968,71
746,95	2014,59
747,13	1947,21
747,32	1957,45
747,50	1963,59
747,68	1933,28
747,86	1911,37
748,05	1976,09
748,23	1943,11
748,41	1969,74
748,59	1908,09
748,77	1913,83
748,96	1923,45
749,14	1861,81
749,32	2017,25
749,50	1962,16
749,69	1928,37
749,87	1938,40
750,05	1886,18
750,23	1854,64
750,41	1849,93
750,60	1892,94
750,78	1862,83
750,96	1919,56
751,14	1895,80
751,32	1898,06
751,51	1860,58
751,69	1853,21
751,87	1820,03
752,05	1906,04
752,23	1920,79
752,42	1879,01
752,60	1908,30
752,78	1860,99
752,96	1883,11
753,14	1867,54
753,33	1849,73
753,51	1867,75
753,69	1850,54
753,87	1884,54
754,05	1894,37
754,23	1879,01
754,42	1831,09
754,60	1846,86
754,78	1903,79
754,96	1806,51
755,14	1826,17
755,32	1868,16
755,51	1804,87
755,69	1856,89
755,87	1803,85
756,05	1806,92
756,23	1831,91
756,41	1857,71
756,60	1867,75
756,78	1850,95
756,96	1788,29
757,14	1858,12
757,32	1810,81
757,50	1875,12
757,68	1810,61
757,87	1791,77
758,05	1809,18
758,23	1808,97
758,41	1892,73
758,59	1885,56
758,77	1875,53
758,95	1882,70
759,14	1831,70
759,32	1857,51
759,50	1826,17
759,68	1814,50
759,86	1818,80
760,04	1814,91
760,22	1817,57
760,40	1962,98
760,59	1830,47
760,77	1866,93
760,95	1794,02
761,13	1788,90
761,31	1868,36
761,49	1841,33
761,67	1864,88
761,85	1798,73
762,03	1818,80
762,22	1865,29
762,40	1834,16
762,58	1818,19
762,76	1835,39
762,94	1853,21
763,12	1819,42
763,30	1894,78
763,48	1816,55
763,66	1785,83
763,84	1786,03
764,02	1787,67
764,21	1799,55
764,39	1923,86
764,57	1813,89
764,75	1777,02
764,93	1813,07
765,11	1782,14
765,29	1810,40
765,47	1791,36
765,65	1777,23
765,83	1769,85
766,01	1772,72
766,19	1788,08
766,37	1851,36
766,56	1821,05
766,74	1765,76
766,92	1770,06
767,10	1738,73
767,28	1795,45
767,46	1773,75
767,64	1744,05
767,82	1784,40
768,00	1732,79
768,18	1752,04
768,36	1800,57
768,54	1830,27
768,72	1820,85
768,90	1704,52
769,08	1695,92
769,26	1788,70
769,44	1736,06
769,62	1738,93
769,80	1781,32
769,98	1771,90
770,16	1740,36
770,34	1749,78
770,52	1719,27
770,71	1763,10
770,89	1735,04
771,07	1825,97
771,25	1731,97
771,43	1764,33
771,61	1781,94
771,79	1729,51
771,97	1740,57
772,15	1725,21
772,33	1729,10
772,51	1797,09
772,69	1707,60
772,87	1759,61
773,05	1725,62
773,23	1750,40
773,41	1755,72
773,59	1777,43
773,77	1700,22
773,95	1733,40
774,13	1739,95
774,31	1754,29
774,49	1738,52
774,67	1691,42
774,85	1709,03
775,03	1695,10
775,21	1736,06
775,39	1648,41
775,57	1650,66
775,75	1719,06
775,93	1677,90
776,10	1674,42
776,28	1721,32
776,46	1651,28
776,64	1667,46
776,82	1661,72
777,00	2780,12
777,18	1638,78
777,36	1711,49
777,54	1668,28
777,72	1631,41
777,90	1695,10
778,08	1651,07
778,26	1622,20
778,44	1625,68
778,62	1675,24
778,80	1735,86
778,98	1690,60
779,16	1628,54
779,34	1736,06
779,52	1640,83
779,70	1705,75
779,88	1636,74
780,05	1610,73
780,23	1635,51
780,41	1641,24
780,59	1644,93
780,77	1672,99
780,95	1677,49
781,13	1654,55
781,31	1608,47
781,49	1687,12
781,67	1654,76
781,85	1636,33
782,03	1636,53
782,21	1613,18
782,39	1621,38
782,56	1670,53
782,74	1656,19
782,92	1610,93
783,10	1751,83
783,28	1574,68
783,46	1588,61
783,64	1655,99
783,82	1624,45
784,00	1648,82
784,18	1616,05
784,35	1578,16
784,53	1608,68
784,71	1582,88
784,89	1624,86
785,07	1612,78
785,25	1628,95
785,43	1652,10
785,61	1569,77
785,79	1592,91
785,96	1668,28
786,14	1567,72
786,32	1624,86
786,50	1643,49
786,68	1541,51
786,86	1607,86
787,04	1613,59
787,22	1587,18
787,39	1596,60
787,57	1591,27
787,75	1599,26
787,93	1633,46
788,11	1560,14
788,29	1628,75
788,47	1629,57
788,65	1583,28
788,82	1606,02
789,00	1585,95
789,18	1622,40
789,36	1610,93
789,54	1555,02
789,72	1598,64
789,89	1556,46
790,07	1645,95
790,25	1638,17
790,43	1613,80
790,61	1641,45
790,79	1599,05
790,96	1581,24
791,14	1657,63
791,32	1559,12
791,50	1597,62
791,68	1658,85
791,86	1585,13
792,03	1570,18
792,21	1581,85
792,39	1571,61
792,57	1566,90
792,75	1530,04
792,93	1580,42
793,10	1553,38
793,28	1586,15
793,46	1557,07
793,64	1615,23
793,82	1654,55
793,99	1629,98
794,17	1540,69
794,35	1584,10
794,53	1592,09
794,71	1509,97
794,88	1550,72
795,06	1584,92
795,24	1554,82
795,42	1558,91
795,60	1609,29
795,77	1543,55
795,95	1580,01
796,13	1560,55
796,31	1594,34
796,49	1659,47
796,66	1557,28
796,84	1559,94
797,02	1630,80
797,20	1569,77
797,37	1575,09
797,55	1520,82
797,73	1517,95
797,91	1512,63
798,08	1595,98
798,26	1581,65
798,44	1527,38
798,62	1512,83
798,80	1539,05
798,97	1554,20
799,15	1575,09
799,33	1613,18
799,51	1635,10
799,68	1580,83
799,86	1573,04
800,04	1550,31
800,22	1562,80
800,39	1521,44
800,57	1613,80
800,75	1575,71
800,93	1578,57
801,10	1611,96
801,28	1627,11
801,46	1533,31
801,63	1569,77
801,81	1556,87
801,99	1563,21
802,17	1538,64
802,34	1645,13
802,52	1537,21
802,70	1572,23
802,88	1588,20
803,05	1584,92
803,23	1530,65
803,41	1527,17
803,58	1558,91
803,76	1582,88
803,94	1590,04
804,12	1566,49
804,29	1515,09
804,47	1615,85
804,65	1557,48
804,82	1543,96
805,00	1551,95
805,18	1557,48
805,35	1539,46
805,53	1573,04
805,71	1547,85
805,89	1560,76
806,06	1600,90
806,24	1516,93
806,42	1530,04
806,59	1539,25
806,77	1620,15
806,95	1544,58
807,12	1565,47
807,30	1590,86
807,48	1500,75
807,65	1504,03
807,83	1549,08
808,01	1538,02
808,18	1554,00
808,36	1536,18
808,54	1484,16
808,71	1547,85
808,89	1575,09
809,07	1551,34
809,24	1561,78
809,42	1582,26
809,60	1501,98
809,77	1535,77
809,95	1572,02
810,13	1552,97
810,30	1556,87
810,48	1609,91
810,66	1527,38
810,83	1544,37
811,01	1527,58
811,18	1555,02
811,36	1429,07
811,54	1534,95
811,71	1547,45
811,89	1539,46
812,07	1503,82
812,24	1603,35
812,42	1513,86
812,59	1518,77
812,77	1535,57
812,95	1576,12
813,12	1517,54
813,30	1536,80
813,48	1513,24
813,65	1543,14
813,83	1577,35
814,00	1568,13
814,18	1578,57
814,36	1492,35
814,53	1545,60
814,71	1543,14
814,88	1558,91
815,06	1498,70
815,24	1565,88
815,41	1500,55
815,59	1538,02
815,76	1504,64
815,94	1581,24
816,12	1525,12
816,29	1567,72
816,47	1542,53
816,64	1580,01
816,82	1494,81
817,00	1559,53
817,17	1553,38
817,35	1623,22
817,52	1517,54
817,70	1520,41
817,87	1570,38
818,05	1515,70
818,23	1541,30
818,40	1586,97
818,58	1530,65
818,75	1516,52
818,93	1497,88
819,10	1548,26
819,28	1508,74
819,46	1534,95
819,63	1512,22
819,81	1585,74
819,98	1455,90
820,16	1567,11
820,33	1479,25
820,51	1577,14
820,68	1538,43
820,86	1553,59
821,03	1608,88
821,21	1562,60
821,39	1621,38
821,56	1537,41
821,74	1484,78
821,91	1483,14
822,09	1512,42
822,26	1510,17
822,44	1455,70
822,61	1510,99
822,79	1537,41
822,96	1523,69
823,14	1494,40
823,31	1488,67
823,49	1550,72
823,66	1545,81
823,84	1531,06
824,01	1521,03
824,19	1481,71
824,36	1548,06
824,54	1520,00
824,71	1556,66
824,89	1521,64
825,06	1586,15
825,24	1521,44
825,41	1532,70
825,59	1545,60
825,76	1546,01
825,94	1507,30
826,11	1571,82
826,29	1510,79
826,46	1523,28
826,64	1573,45
826,81	1548,26
826,99	1504,23
827,16	1476,18
827,34	1469,21
827,51	1495,84
827,69	1597,01
827,86	1513,04
828,04	1525,53
828,21	1534,75
828,39	1541,51
828,56	1506,28
828,74	1541,71
828,91	1512,22
829,09	1627,32
829,26	1523,89
829,43	1540,48
829,61	1513,45
829,78	1511,40
829,96	1550,52
830,13	1493,38
830,31	1542,53
830,48	1535,57
830,66	1489,90
830,83	1489,49
831,01	1493,99
831,18	1498,50
831,35	1520,41
831,53	1560,76
831,70	1554,61
831,88	1633,66
832,05	1522,87
832,23	1500,14
832,40	1544,37
832,57	1569,56
832,75	1495,84
832,92	1543,96
833,10	1577,55
833,27	1517,54
833,45	1518,16
833,62	1506,08
833,79	1540,28
833,97	1511,81
834,14	1500,14
834,32	1540,89
834,49	1476,59
834,66	1505,87
834,84	1484,78
835,01	1544,78
835,19	1475,77
835,36	1489,90
835,53	1591,27
835,71	1524,51
835,88	1534,34
836,06	1537,00
836,23	1571,41
836,40	1470,85
836,58	1496,04
836,75	1516,11
836,93	1495,02
837,10	1522,05
837,27	1523,28
837,45	1521,64
837,62	1466,76
837,79	1511,40
837,97	1554,00
838,14	1496,25
838,32	1513,86
838,49	1482,52
838,66	1527,17
838,84	1535,36
839,01	1567,31
839,18	1526,35
839,36	1500,14
839,53	1486,21
839,70	1549,29
839,88	1516,32
840,05	1538,84
840,23	1497,47
840,40	1479,66
840,57	1517,54
840,75	1503,62
840,92	1563,21
841,09	1536,59
841,27	1550,31
841,44	1531,47
841,61	1556,87
841,79	1516,32
841,96	1502,80
842,13	1454,26
842,31	1502,39
842,48	1506,90
842,65	1492,35
842,83	1501,16
843,00	1499,32
843,17	1486,42
843,35	1543,55
843,52	1483,75
843,69	1536,18
843,86	1481,09
844,04	1523,28
844,21	1483,34
844,38	1518,36
844,56	1522,46
844,73	1530,86
844,90	1525,94
845,08	1493,58
845,25	1506,49
845,42	1553,38
845,60	1514,27
845,77	1526,56
845,94	1488,87
846,11	1518,36
846,29	1535,16
846,46	1511,20
846,63	1494,20
846,81	1553,18
846,98	1516,93
847,15	1518,77
847,32	1510,38
847,50	1476,38
847,67	1492,76
847,84	1520,21
848,01	1544,37
848,19	1528,60
848,36	1500,34
848,53	1472,90
848,71	1551,95
848,88	1505,67
849,05	1459,38
849,22	1471,88
849,40	1483,14
849,57	1553,18
849,74	1493,17
849,91	1524,71
850,09	1485,60
850,26	1480,68
850,43	1521,44
850,60	1501,78
850,78	1502,39
850,95	1516,73
851,12	1445,05
851,29	1555,43
851,47	1560,76
851,64	1507,71
851,81	1506,90
851,98	1506,28
852,15	1538,02
852,33	1465,32
852,50	1478,84
852,67	1542,12
852,84	1484,78
853,02	1540,48
853,19	1552,57
853,36	1488,26
853,53	1470,85
853,70	1585,13
853,88	1526,76
854,05	1552,36
854,22	1500,96
854,39	1540,69
854,56	1529,01
854,74	1476,38
854,91	1508,53
855,08	1457,54
855,25	1522,66
855,42	1494,81
855,60	1503,41
855,77	1525,94
855,94	1576,94
856,11	1492,15
856,28	1508,12
856,46	1546,22
856,63	1489,69
856,80	1448,53
856,97	1544,58
857,14	1539,87
857,31	1486,21
857,49	1496,45
857,66	1519,59
857,83	1472,28
858,00	1484,57
858,17	1486,21
858,34	1498,09
858,52	1472,90
858,69	1472,28
858,86	1495,22
859,03	1461,64
859,20	1560,14
859,37	1514,68
859,55	1455,29
859,72	1494,81
859,89	1503,00
860,06	1551,34
860,23	1555,84
860,40	1465,53
860,57	1542,33
860,75	1457,54
860,92	1530,65
861,09	1536,18
861,26	1577,14
861,43	1514,06
861,60	1479,25
861,77	1475,77
861,95	1466,14
862,12	1517,34
862,29	1463,48
862,46	1510,17
862,63	1523,89
862,80	1549,49
862,97	1591,07
863,14	1457,13
863,31	1560,76
863,49	1524,92
863,66	1520,82
863,83	1527,78
864,00	1556,05
864,17	1501,16
864,34	1515,50
864,51	1474,54
864,68	1529,83
864,85	1487,03
865,02	1501,98
865,20	1521,64
865,37	1489,28
865,54	1496,25
865,71	1509,97
865,88	1492,56
866,05	1492,76
866,22	1491,74
866,39	1484,16
866,56	1471,88
866,73	1481,09
866,90	1543,35
867,07	1501,57
867,25	1456,11
867,42	1528,40
867,59	1488,87
867,76	1540,69
867,93	1473,31
868,10	1540,07
868,27	1486,01
868,44	1500,34
868,61	1504,64
868,78	1514,88
868,95	1462,86
869,12	1534,75
869,29	1516,73
869,46	1524,10
869,63	1518,57
869,80	1463,27
869,97	1525,53
870,14	1509,56
870,32	1522,87
870,49	1505,67
870,66	1540,48
870,83	1500,34
871,00	1495,84
871,17	1500,75
871,34	1487,64
871,51	1523,89
871,68	1459,79
871,85	1511,81
872,02	1587,59
872,19	1498,70
872,36	1462,86
872,53	1521,85
872,70	1502,19
872,87	1502,19
873,04	1445,66
873,21	1441,16
873,38	1472,49
873,55	1538,02
873,72	1485,60
873,89	1499,11
874,06	1450,99
874,23	1448,53
874,40	1471,06
874,57	1505,87
874,74	1580,42
874,91	1472,08
875,08	1479,86
875,25	1521,03
875,42	1479,66
875,59	1515,70
875,76	1512,22
875,93	1494,81
876,10	1540,89
876,27	1467,57
876,44	1593,73
876,61	1530,65
876,78	1487,03
876,95	1532,09
877,12	1474,95
877,29	1508,33
877,46	1484,57
877,62	1513,24
877,79	1480,89
877,96	1532,90
878,13	1475,56
878,30	1478,84
878,47	1545,19
878,64	1522,26
878,81	1512,02
878,98	1474,13
879,15	1545,81
879,32	1539,46
879,49	1534,95
879,66	1520,00
879,83	1460,82
880,00	1552,77
880,17	1463,89
880,34	1526,76
880,51	1471,47
880,67	1544,99
880,84	1425,80
881,01	1498,91
881,18	1541,51
881,35	1496,66
881,52	1589,43
881,69	1484,78
881,86	1568,33
882,03	1503,41
882,20	1521,23
882,37	1509,76
882,54	1537,21
882,70	1503,00
882,87	1465,73
883,04	1559,12
883,21	1497,68
883,38	1480,68
883,55	1490,92
883,72	1472,49
883,89	1474,74
884,06	1477,00
884,23	1461,02
884,39	1446,28
884,56	1544,99
884,73	1529,01
884,90	1512,22
885,07	1548,47
885,24	1487,23
885,41	1567,92
885,58	1493,38
885,74	1473,31
885,91	1516,73
886,08	1519,59
886,25	1462,45
886,42	1490,10
886,59	1520,82
886,76	1476,38
886,93	1435,42
887,09	1567,72
887,26	1623,22
887,43	1487,64
887,60	1492,97
887,77	1524,92
887,94	1520,82
888,10	1607,86
888,27	1543,55
888,44	1530,24
888,61	1459,79
888,78	1466,14
888,95	1520,62
889,12	1464,30
889,28	1513,86
889,45	1499,52
889,62	1500,34
889,79	1484,78
889,96	1498,29
890,13	1510,38
890,29	1509,56
890,46	1585,13
890,63	1528,60
890,80	1523,07
890,97	1503,82
891,13	1455,08
891,30	1534,54
891,47	1574,07
891,64	1467,37
891,81	1465,53
891,98	1471,88
892,14	1512,02
892,31	1467,98
892,48	1503,21
892,65	1480,48
892,82	1498,09
892,98	1462,04
893,15	1526,35
893,32	1518,57
>>>>>End Processed Spectral Data<<<<<
