SpectraSuite Datei
++++++++++++++++++++++++++++++++++++
Datum: Thu Mar 09 10:45:38 CET 2017
Benutzer: Admin
Dark-Spektrum vorhanden: Nein
Referenz-Spektrum vorhanden: Nein
Zahl der probierten Teilspektren: 1
Spektrometer: USB4F05832
Integrationszeit (usec): 100000 (USB4F05832)
Spektren Durchschnitt berechnet: 10 (USB4F05832)
Boxcar Glättung: 0 (USB4F05832)
Dunkelstromkorrektur: Nein (USB4F05832)
Puls/Lampe aktiviert: Nein (USB4F05832)
Correct for Detector Non-linearity: Nein (USB4F05832)
Streulichtkorrektur: Nein (USB4F05832)
Anzahl Pixel in verarbeitetem Spektrum: 3648
>>>>>Begin Processed Spectral Data<<<<<
177,54	1341,62
177,75	1341,62
177,97	1341,62
178,19	1340,40
178,41	1332,20
178,63	1516,11
178,85	1410,85
179,07	1440,34
179,29	1487,03
179,51	1451,19
179,73	1524,30
179,95	1462,66
180,17	1453,24
180,39	1541,51
180,61	1476,59
180,83	1580,21
181,05	1473,10
181,27	1486,83
181,49	1467,98
181,71	1499,52
181,92	1603,76
182,14	1489,90
182,36	1463,27
182,58	1514,47
182,80	1463,89
183,02	1573,25
183,24	1561,37
183,46	1531,68
183,68	1474,54
183,90	1509,76
184,12	1458,97
184,34	1532,29
184,56	1496,04
184,78	1446,89
185,00	1489,90
185,21	1557,28
185,43	1444,43
185,65	1494,20
185,87	1486,83
186,09	1575,91
186,31	1517,14
186,53	1505,05
186,75	1499,52
186,97	1540,48
187,19	1583,49
187,41	1457,13
187,63	1546,22
187,84	1454,67
188,06	1506,08
188,28	1487,03
188,50	1524,30
188,72	1553,18
188,94	1558,71
189,16	1473,51
189,38	1516,52
189,60	1524,92
189,82	1493,17
190,03	1539,05
190,25	1475,97
190,47	1536,80
190,69	1487,23
190,91	1453,85
191,13	1513,04
191,35	1579,60
191,57	1455,49
191,79	1503,21
192,01	1513,04
192,22	1545,60
192,44	1462,86
192,66	1512,02
192,88	1499,73
193,10	1504,64
193,32	1492,97
193,54	1568,13
193,76	1561,99
193,98	1498,50
194,19	1535,36
194,41	1479,86
194,63	1461,84
194,85	1482,52
195,07	1553,18
195,29	1419,86
195,51	1531,68
195,73	1465,12
195,94	1492,97
196,16	1485,80
196,38	1585,54
196,60	1466,76
196,82	1478,63
197,04	1492,76
197,26	1464,71
197,48	1453,24
197,69	1514,88
197,91	1451,81
198,13	1488,67
198,35	1477,61
198,57	1495,02
198,79	1542,33
199,01	1530,86
199,22	1499,32
199,44	1545,81
199,66	1499,73
199,88	1515,09
200,10	1527,99
200,32	1515,29
200,54	1521,03
200,75	1580,21
200,97	1475,15
201,19	1543,55
201,41	1545,81
201,63	1475,36
201,85	1462,25
202,06	1530,86
202,28	1487,03
202,50	1520,82
202,72	1424,57
202,94	1446,07
203,16	1486,62
203,38	1499,73
203,59	1498,29
203,81	1542,53
204,03	1439,11
204,25	1520,82
204,47	1546,83
204,69	1510,58
204,90	1461,64
205,12	1517,34
205,34	1516,73
205,56	1517,95
205,78	1474,33
206,00	1568,54
206,21	1573,66
206,43	1488,05
206,65	1523,89
206,87	1466,35
207,09	1534,13
207,30	1446,48
207,52	1533,93
207,74	1513,04
207,96	1458,97
208,18	1487,03
208,40	1473,10
208,61	1480,48
208,83	1489,90
209,05	1455,90
209,27	1451,60
209,49	1549,08
209,70	1502,80
209,92	1513,65
210,14	1480,07
210,36	1479,45
210,58	1508,53
210,79	1510,17
211,01	1456,31
211,23	1533,31
211,45	1546,63
211,67	1519,18
211,88	1456,72
212,10	1545,60
212,32	1457,74
212,54	1484,16
212,76	1505,46
212,97	1463,68
213,19	1452,42
213,41	1538,02
213,63	1445,46
213,85	1463,27
214,06	1457,54
214,28	1577,14
214,50	1493,58
214,72	1533,93
214,94	1525,94
215,15	1470,85
215,37	1461,02
215,59	1455,08
215,81	1519,80
216,02	1489,08
216,24	1536,18
216,46	1468,19
216,68	1477,81
216,90	1478,63
217,11	1550,11
217,33	1470,85
217,55	1555,84
217,77	1523,48
217,98	1556,87
218,20	1512,02
218,42	1560,14
218,64	1518,77
218,85	1568,95
219,07	1516,32
219,29	1491,95
219,51	1533,52
219,73	1506,08
219,94	1495,84
220,16	1582,26
220,38	1536,80
220,60	1473,92
220,81	1434,19
221,03	1447,91
221,25	1530,45
221,47	1425,18
221,68	1507,51
221,90	1513,24
222,12	1511,81
222,34	1507,71
222,55	1538,23
222,77	1576,73
222,99	1517,75
223,21	1506,28
223,42	1553,18
223,64	1525,12
223,86	1478,02
224,08	1510,99
224,29	1565,67
224,51	1505,05
224,73	1505,87
224,94	1491,54
225,16	1449,35
225,38	1483,14
225,60	1520,21
225,81	1494,81
226,03	1472,69
226,25	1463,89
226,47	1505,67
226,68	1534,34
226,90	1506,49
227,12	1526,76
227,33	1509,56
227,55	1504,03
227,77	1463,89
227,99	1576,73
228,20	1476,59
228,42	1491,74
228,64	1506,28
228,86	1468,39
229,07	1513,04
229,29	1460,82
229,51	1406,95
229,72	1572,43
229,94	1511,20
230,16	1521,23
230,38	1461,02
230,59	1493,79
230,81	1565,47
231,03	1522,46
231,24	1481,91
231,46	1483,14
231,68	1484,57
231,89	1478,63
232,11	1466,76
232,33	1590,66
232,55	1520,00
232,76	1511,61
232,98	1513,45
233,20	1476,18
233,41	1457,33
233,63	1478,22
233,85	1474,33
234,06	1491,95
234,28	1508,94
234,50	1452,62
234,71	1499,11
234,93	1562,60
235,15	1514,06
235,37	1444,64
235,58	1519,18
235,80	1461,84
236,02	1480,68
236,23	1515,91
236,45	1473,31
236,67	1529,63
236,88	1506,49
237,10	1515,91
237,32	1543,55
237,53	1522,26
237,75	1507,92
237,97	1423,34
238,18	1481,50
238,40	1516,11
238,62	1469,62
238,83	1478,84
239,05	1453,85
239,27	1499,52
239,48	1469,01
239,70	1487,64
239,92	1544,17
240,13	1529,01
240,35	1490,51
240,57	1513,86
240,78	1532,50
241,00	1451,19
241,22	1482,52
241,43	1574,89
241,65	1510,79
241,87	1565,88
242,08	1602,13
242,30	1443,82
242,52	1481,71
242,73	1524,51
242,95	1453,03
243,16	1513,24
243,38	1554,20
243,60	1515,09
243,81	1512,63
244,03	1547,45
244,25	1454,06
244,46	1493,58
244,68	1489,69
244,90	1530,86
245,11	1460,61
245,33	1501,78
245,55	1532,29
245,76	1496,66
245,98	1477,81
246,19	1569,56
246,41	1556,87
246,63	1533,93
246,84	1554,41
247,06	1522,46
247,28	1530,86
247,49	1498,09
247,71	1461,23
247,92	1509,56
248,14	1541,10
248,36	1514,47
248,57	1535,36
248,79	1561,58
249,01	1495,43
249,22	1511,81
249,44	1528,40
249,65	1498,70
249,87	1514,06
250,09	1498,29
250,30	1508,53
250,52	1493,58
250,73	1546,83
250,95	1469,21
251,17	1513,24
251,38	1484,57
251,60	1479,04
251,81	1556,46
252,03	1569,56
252,25	1461,84
252,46	1507,10
252,68	1542,53
252,89	1509,56
253,11	1522,66
253,33	1518,77
253,54	1436,65
253,76	1513,45
253,97	1563,01
254,19	1538,23
254,41	1462,25
254,62	1558,91
254,84	1511,61
255,05	1504,23
255,27	1545,40
255,49	1552,77
255,70	1521,03
255,92	1491,95
256,13	1486,21
256,35	1518,16
256,56	1546,63
256,78	1533,11
257,00	1529,01
257,21	1498,29
257,43	1451,40
257,64	1476,59
257,86	1555,02
258,08	1511,40
258,29	1604,99
258,51	1479,45
258,72	1511,20
258,94	1550,72
259,15	1513,04
259,37	1503,00
259,59	1439,52
259,80	1522,05
260,02	1483,96
260,23	1483,75
260,45	1475,15
260,66	1522,46
260,88	1516,73
261,09	1498,29
261,31	1487,23
261,53	1544,58
261,74	1547,85
261,96	1438,49
262,17	1452,42
262,39	1499,52
262,60	1477,40
262,82	1499,93
263,03	1487,03
263,25	1537,82
263,46	1477,61
263,68	1523,48
263,90	1501,98
264,11	1495,63
264,33	1548,06
264,54	1531,06
264,76	1513,65
264,97	1577,96
265,19	1459,18
265,40	1552,57
265,62	1484,78
265,83	1527,58
266,05	1498,09
266,26	1490,10
266,48	1562,19
266,70	1566,08
266,91	1453,03
267,13	1521,23
267,34	1479,86
267,56	1514,47
267,77	1478,63
267,99	1473,51
268,20	1564,65
268,42	1510,79
268,63	1452,83
268,85	1641,04
269,06	1550,31
269,28	1551,13
269,49	1507,71
269,71	1553,79
269,92	1491,74
270,14	1471,67
270,35	1499,52
270,57	1538,84
270,78	1475,36
271,00	1497,27
271,21	1617,49
271,43	1472,08
271,64	1491,33
271,86	1546,01
272,07	1465,73
272,29	1593,52
272,50	1468,19
272,72	1566,70
272,93	1534,75
273,15	1571,41
273,36	1532,50
273,58	1511,40
273,79	1510,99
274,01	1502,59
274,22	1484,57
274,44	1511,61
274,65	1529,01
274,87	1539,87
275,08	1531,27
275,30	1551,34
275,51	1627,52
275,73	1583,08
275,94	1472,28
276,16	1494,20
276,37	1485,80
276,59	1510,58
276,80	1508,74
277,02	1501,37
277,23	1461,23
277,45	1511,40
277,66	1442,79
277,88	1535,57
278,09	1596,39
278,30	1542,94
278,52	1475,36
278,73	1621,58
278,95	1524,10
279,16	1606,63
279,38	1534,13
279,59	1528,60
279,81	1478,43
280,02	1514,47
280,24	1469,21
280,45	1524,30
280,67	1581,44
280,88	1556,05
281,09	1469,42
281,31	1459,18
281,52	1509,35
281,74	1603,15
281,95	1516,32
282,17	1498,91
282,38	1537,41
282,60	1506,08
282,81	1551,75
283,02	1478,22
283,24	1494,81
283,45	1558,50
283,67	1447,91
283,88	1529,22
284,10	1476,79
284,31	1539,46
284,53	1485,39
284,74	1532,50
284,95	1482,73
285,17	1493,17
285,38	1498,70
285,60	1481,30
285,81	1451,60
286,03	1525,33
286,24	1518,57
286,45	1551,54
286,67	1515,91
286,88	1511,81
287,10	1542,73
287,31	1459,18
287,53	1523,48
287,74	1537,21
287,95	1460,00
288,17	1543,76
288,38	1510,99
288,60	1463,89
288,81	1466,55
289,02	1482,11
289,24	1569,56
289,45	1509,97
289,67	1532,29
289,88	1506,08
290,10	1521,03
290,31	1505,05
290,52	1509,35
290,74	1506,49
290,95	1528,60
291,17	1547,65
291,38	1469,42
291,59	1468,39
291,81	1512,02
292,02	1512,02
292,24	1535,98
292,45	1540,28
292,66	1502,19
292,88	1551,75
293,09	1482,73
293,31	1513,86
293,52	1504,44
293,73	1447,91
293,95	1519,59
294,16	1559,12
294,37	1526,56
294,59	1538,64
294,80	1590,45
295,02	1490,51
295,23	1466,96
295,44	1530,86
295,66	1481,71
295,87	1538,43
296,09	1478,63
296,30	1511,81
296,51	1463,27
296,73	1495,02
296,94	1446,69
297,15	1484,37
297,37	1455,70
297,58	1484,37
297,79	1513,24
298,01	1527,58
298,22	1547,65
298,44	1462,86
298,65	1492,97
298,86	1528,40
299,08	1486,83
299,29	1517,54
299,50	1480,48
299,72	1483,75
299,93	1495,22
300,14	1554,20
300,36	1443,00
300,57	1464,50
300,79	1503,21
301,00	1535,36
301,21	1441,57
301,43	1506,08
301,64	1505,26
301,85	1483,34
302,07	1546,83
302,28	1488,67
302,49	1561,17
302,71	1516,73
302,92	1526,35
303,13	1555,02
303,35	1496,66
303,56	1514,88
303,77	1441,77
303,99	1525,53
304,20	1516,52
304,41	1490,31
304,63	1492,97
304,84	1527,38
305,05	1543,55
305,27	1538,02
305,48	1535,77
305,69	1503,62
305,91	1555,64
306,12	1520,41
306,33	1528,19
306,55	1492,35
306,76	1509,35
306,97	1504,85
307,19	1491,74
307,40	1555,43
307,61	1544,99
307,82	1502,80
308,04	1536,80
308,25	1549,70
308,46	1535,57
308,68	1497,88
308,89	1571,41
309,10	1504,85
309,32	1483,34
309,53	1490,72
309,74	1519,59
309,96	1500,14
310,17	1485,80
310,38	1490,51
310,59	1528,19
310,81	1498,70
311,02	1506,69
311,23	1543,76
311,45	1535,77
311,66	1516,73
311,87	1498,91
312,09	1559,94
312,30	1518,77
312,51	1532,29
312,72	1531,27
312,94	1496,86
313,15	1503,82
313,36	1556,87
313,58	1473,31
313,79	1585,74
314,00	1509,76
314,21	1458,56
314,43	1501,37
314,64	1525,12
314,85	1470,65
315,06	1483,55
315,28	1553,38
315,49	1546,22
315,70	1513,24
315,92	1569,77
316,13	1593,52
316,34	1535,36
316,55	1543,55
316,77	1477,20
316,98	1593,32
317,19	1471,67
317,40	1448,94
317,62	1461,02
317,83	1571,20
318,04	1505,26
318,25	1495,43
318,47	1480,27
318,68	1518,57
318,89	1540,28
319,11	1509,56
319,32	1492,76
319,53	1592,91
319,74	1578,78
319,96	1521,85
320,17	1515,29
320,38	1448,73
320,59	1587,59
320,81	1515,70
321,02	1519,39
321,23	1504,23
321,44	1554,61
321,65	1495,84
321,87	1520,00
322,08	1554,41
322,29	1493,79
322,50	1478,02
322,72	1504,64
322,93	1496,45
323,14	1483,96
323,35	1496,86
323,57	1552,16
323,78	1516,52
323,99	1538,23
324,20	1543,96
324,41	1464,50
324,63	1519,80
324,84	1508,12
325,05	1515,09
325,26	1554,41
325,48	1516,11
325,69	1509,15
325,90	1498,29
326,11	1501,98
326,32	1487,64
326,54	1527,58
326,75	1495,22
326,96	1497,07
327,17	1530,04
327,39	1540,89
327,60	1509,35
327,81	1519,39
328,02	1512,22
328,23	1534,54
328,45	1543,96
328,66	1514,47
328,87	1518,57
329,08	1562,80
329,29	1515,29
329,51	1500,14
329,72	1484,16
329,93	1504,64
330,14	1470,85
330,35	1508,74
330,56	1471,88
330,78	1521,03
330,99	1508,53
331,20	1553,79
331,41	1550,11
331,62	1458,15
331,84	1496,86
332,05	1500,75
332,26	1520,41
332,47	1529,22
332,68	1487,64
332,90	1498,29
333,11	1434,81
333,32	1612,98
333,53	1514,88
333,74	1453,85
333,95	1543,55
334,17	1517,54
334,38	1517,75
334,59	1503,21
334,80	1501,16
335,01	1577,76
335,22	1500,96
335,44	1504,44
335,65	1479,04
335,86	1568,95
336,07	1499,52
336,28	1481,91
336,49	1471,67
336,71	1462,86
336,92	1587,79
337,13	1503,00
337,34	1508,33
337,55	1600,49
337,76	1490,92
337,97	1524,10
338,19	1531,68
338,40	1489,08
338,61	1549,70
338,82	1514,27
339,03	1535,98
339,24	1446,48
339,45	1482,73
339,67	1509,97
339,88	1513,24
340,09	1536,18
340,30	1476,79
340,51	1577,76
340,72	1498,50
340,93	1446,28
341,15	1535,98
341,36	1530,24
341,57	1490,72
341,78	1477,40
341,99	1542,33
342,20	1542,53
342,41	1483,75
342,62	1584,51
342,84	1435,63
343,05	1565,26
343,26	1474,54
343,47	1558,30
343,68	1452,42
343,89	1509,15
344,10	1528,19
344,31	1521,85
344,53	1454,67
344,74	1511,40
344,95	1465,32
345,16	1505,46
345,37	1525,74
345,58	1517,34
345,79	1462,04
346,00	1456,72
346,21	1461,02
346,42	1483,96
346,64	1493,99
346,85	1543,96
347,06	1525,94
347,27	1476,38
347,48	1561,78
347,69	1535,98
347,90	1502,59
348,11	1544,99
348,32	1474,74
348,53	1501,78
348,75	1457,95
348,96	1524,71
349,17	1465,94
349,38	1502,39
349,59	1492,97
349,80	1467,57
350,01	1578,37
350,22	1564,24
350,43	1514,27
350,64	1530,86
350,85	1572,43
351,06	1456,31
351,28	1503,41
351,49	1466,14
351,70	1523,69
351,91	1435,22
352,12	1475,56
352,33	1511,81
352,54	1463,48
352,75	1446,48
352,96	1470,65
353,17	1522,46
353,38	1507,92
353,59	1564,65
353,80	1567,31
354,01	1562,80
354,22	1480,89
354,44	1474,95
354,65	1561,37
354,86	1477,61
355,07	1492,35
355,28	1448,73
355,49	1479,45
355,70	1464,71
355,91	1508,53
356,12	1480,27
356,33	1459,38
356,54	1522,66
356,75	1513,86
356,96	1501,37
357,17	1557,89
357,38	1479,66
357,59	1490,31
357,80	1560,55
358,01	1512,83
358,22	1532,90
358,43	1513,65
358,64	1532,90
358,85	1438,70
359,07	1560,76
359,28	1473,31
359,49	1520,62
359,70	1446,69
359,91	1521,85
360,12	1469,42
360,33	1535,57
360,54	1456,92
360,75	1469,01
360,96	1482,11
361,17	1448,94
361,38	1457,13
361,59	1575,91
361,80	1457,13
362,01	1530,65
362,22	1500,14
362,43	1461,02
362,64	1501,98
362,85	1493,58
363,06	1557,69
363,27	1527,58
363,48	1518,77
363,69	1574,89
363,90	1456,31
364,11	1506,90
364,32	1490,51
364,53	1532,09
364,74	1506,49
364,95	1533,72
365,16	1490,51
365,37	1546,22
365,58	1477,40
365,79	1493,38
366,00	1509,35
366,21	1462,86
366,42	1517,34
366,63	1561,58
366,84	1497,07
367,05	1508,12
367,26	1522,46
367,47	1509,56
367,68	1504,03
367,89	1510,17
368,10	1530,65
368,31	1480,89
368,52	1542,53
368,73	1509,35
368,94	1492,35
369,15	1472,49
369,36	1478,43
369,57	1471,06
369,78	1478,84
369,99	1487,03
370,20	1512,42
370,40	1454,26
370,61	1439,31
370,82	1504,23
371,03	1488,05
371,24	1542,94
371,45	1486,21
371,66	1447,50
371,87	1504,85
372,08	1502,80
372,29	1472,28
372,50	1507,10
372,71	1511,40
372,92	1533,52
373,13	1465,53
373,34	1480,68
373,55	1470,44
373,76	1543,14
373,97	1503,82
374,18	1460,41
374,39	1483,75
374,60	1570,38
374,81	1486,62
375,01	1472,28
375,22	1507,92
375,43	1446,28
375,64	1458,97
375,85	1463,89
376,06	1482,73
376,27	1500,14
376,48	1517,95
376,69	1545,19
376,90	1518,36
377,11	1522,46
377,32	1502,39
377,53	1516,11
377,74	1480,07
377,94	1483,55
378,15	1527,38
378,36	1531,47
378,57	1455,08
378,78	1582,67
378,99	1455,29
379,20	1604,99
379,41	1498,50
379,62	1480,48
379,83	1442,59
380,04	1507,10
380,25	1501,37
380,45	1521,85
380,66	1523,89
380,87	1503,41
381,08	1507,92
381,29	1469,21
381,50	1504,85
381,71	1501,37
381,92	1463,68
382,13	1448,12
382,34	1517,54
382,55	1465,32
382,75	1496,66
382,96	1552,77
383,17	1453,85
383,38	1555,84
383,59	1567,72
383,80	1468,19
384,01	1485,19
384,22	1558,09
384,43	1516,11
384,63	1514,06
384,84	1482,52
385,05	1530,65
385,26	1498,29
385,47	1516,73
385,68	1486,62
385,89	1542,73
386,10	1473,72
386,30	1490,10
386,51	1462,66
386,72	1484,98
386,93	1448,12
387,14	1517,54
387,35	1523,07
387,56	1566,49
387,77	1474,95
387,97	1482,11
388,18	1471,26
388,39	1491,74
388,60	1504,44
388,81	1525,94
389,02	1488,87
389,23	1464,50
389,43	1498,50
389,64	1497,07
389,85	1491,74
390,06	1555,23
390,27	1442,18
390,48	1536,18
390,69	1465,73
390,89	1468,19
391,10	1481,91
391,31	1465,53
391,52	1489,90
391,73	1513,45
391,94	1480,07
392,14	1467,98
392,35	1447,91
392,56	1467,57
392,77	1492,15
392,98	1461,43
393,19	1523,69
393,39	1564,24
393,60	1499,32
393,81	1529,83
394,02	1538,43
394,23	1453,03
394,44	1421,90
394,64	1482,73
394,85	1486,62
395,06	1531,68
395,27	1506,08
395,48	1503,82
395,69	1509,56
395,89	1502,59
396,10	1479,86
396,31	1565,88
396,52	1435,63
396,73	1495,63
396,93	1454,88
397,14	1560,14
397,35	1540,48
397,56	1545,60
397,77	1477,40
397,97	1480,07
398,18	1508,94
398,39	1525,94
398,60	1499,93
398,81	1454,47
399,01	1460,20
399,22	1501,78
399,43	1535,16
399,64	1550,31
399,85	1529,63
400,05	1449,55
400,26	1411,05
400,47	1492,56
400,68	1454,06
400,89	1612,98
401,09	1468,39
401,30	1494,20
401,51	1474,74
401,72	1488,67
401,93	1591,07
402,13	1479,45
402,34	1532,90
402,55	1516,52
402,76	1477,40
402,96	1470,85
403,17	1520,21
403,38	1532,29
403,59	1529,42
403,80	1520,82
404,00	1527,99
404,21	1504,44
404,42	1449,96
404,63	1464,50
404,83	1492,56
405,04	1515,09
405,25	1528,40
405,46	1543,35
405,66	1469,42
405,87	1492,35
406,08	1467,78
406,29	1541,92
406,49	1460,61
406,70	1535,16
406,91	1427,64
407,12	1481,09
407,32	1549,90
407,53	1514,68
407,74	1506,28
407,95	1537,00
408,15	1481,91
408,36	1450,99
408,57	1528,60
408,78	1506,28
408,98	1516,93
409,19	1526,97
409,40	1493,38
409,61	1470,85
409,81	1490,10
410,02	1479,45
410,23	1491,95
410,44	1521,85
410,64	1426,62
410,85	1495,63
411,06	1489,08
411,26	1598,03
411,47	1485,19
411,68	1545,40
411,89	1499,52
412,09	1480,68
412,30	1523,69
412,51	1484,78
412,72	1479,45
412,92	1491,74
413,13	1495,84
413,34	1461,43
413,54	1485,60
413,75	1515,91
413,96	1483,34
414,17	1491,95
414,37	1522,87
414,58	1543,14
414,79	1525,12
414,99	1516,52
415,20	1539,25
415,41	1456,72
415,61	1474,54
415,82	1519,39
416,03	1512,83
416,24	1477,40
416,44	1507,92
416,65	1514,27
416,86	1520,21
417,06	1476,38
417,27	1511,20
417,48	1498,50
417,68	1501,57
417,89	1508,53
418,10	1442,18
418,30	1522,66
418,51	1527,58
418,72	1490,92
418,92	1480,68
419,13	1517,75
419,34	1474,74
419,55	1504,03
419,75	1951,71
419,96	1519,80
420,17	1568,13
420,37	1485,60
420,58	1547,85
420,79	1465,73
420,99	1483,14
421,20	1558,91
421,41	1498,91
421,61	1507,30
421,82	1481,50
422,03	1500,55
422,23	1491,95
422,44	1496,04
422,65	1541,30
422,85	1478,22
423,06	1487,23
423,26	1508,94
423,47	1534,13
423,68	1517,75
423,88	1496,45
424,09	1487,64
424,30	1505,26
424,50	1424,98
424,71	1470,03
424,92	1530,65
425,12	1593,11
425,33	1539,66
425,54	1501,57
425,74	1484,78
425,95	1531,27
426,15	1430,10
426,36	1469,42
426,57	1526,15
426,77	1533,93
426,98	1449,14
427,19	1482,73
427,39	1468,19
427,60	1549,49
427,81	1520,00
428,01	1506,49
428,22	1474,13
428,42	1496,45
428,63	1455,08
428,84	1467,57
429,04	1484,78
429,25	1465,53
429,45	1414,74
429,66	1553,18
429,87	1474,33
430,07	1585,95
430,28	1514,88
430,49	1528,19
430,69	1472,90
430,90	1490,92
431,10	1453,24
431,31	1561,58
431,52	1501,37
431,72	1510,99
431,93	1530,45
432,13	1556,46
432,34	1528,81
432,55	1470,44
432,75	1467,16
432,96	1501,37
433,16	1502,80
433,37	1514,47
433,58	1483,55
433,78	1491,95
433,99	1466,14
434,19	1425,59
434,40	1477,61
434,60	1450,99
434,81	1493,38
435,02	1453,03
435,22	1478,02
435,43	1494,81
435,63	1479,45
435,84	1471,06
436,05	1537,61
436,25	1491,74
436,46	1532,90
436,66	1524,71
436,87	1530,65
437,07	1440,54
437,28	1513,24
437,48	1483,14
437,69	1462,66
437,90	1492,15
438,10	1484,98
438,31	1534,54
438,51	1452,62
438,72	1520,62
438,92	1443,61
439,13	1493,38
439,34	1497,88
439,54	1540,69
439,75	1492,15
439,95	1504,64
440,16	1482,32
440,36	1553,38
440,57	1544,99
440,77	1524,10
440,98	1484,78
441,18	1455,70
441,39	1530,24
441,60	1456,92
441,80	1484,78
442,01	1488,87
442,21	1499,52
442,42	1490,92
442,62	1506,49
442,83	1449,55
443,03	1461,23
443,24	1502,19
443,44	1512,83
443,65	1481,71
443,85	1508,12
444,06	1477,61
444,26	1508,12
444,47	1447,30
444,67	1484,37
444,88	1503,41
445,09	1515,70
445,29	1486,01
445,50	1574,48
445,70	1453,65
445,91	1492,35
446,11	1432,14
446,32	1518,36
446,52	1491,13
446,73	1464,50
446,93	1467,57
447,14	1493,38
447,34	1471,67
447,55	1415,76
447,75	1488,67
447,96	1509,15
448,16	1532,70
448,37	1499,11
448,57	1501,98
448,78	1503,82
448,98	1493,99
449,19	1536,59
449,39	1496,66
449,60	1484,98
449,80	1452,62
450,01	1464,91
450,21	1463,48
450,42	1488,87
450,62	1458,15
450,83	1449,14
451,03	1513,24
451,23	1471,47
451,44	1528,40
451,64	1454,47
451,85	1503,82
452,05	1495,84
452,26	1485,39
452,46	1486,62
452,67	1527,78
452,87	1472,69
453,08	1502,39
453,28	1480,27
453,49	1476,18
453,69	1552,16
453,90	1505,26
454,10	1527,99
454,31	1533,11
454,51	1521,44
454,71	1490,51
454,92	1486,21
455,12	1451,81
455,33	1468,19
455,53	1549,70
455,74	1463,89
455,94	1502,39
456,15	1552,36
456,35	1487,64
456,55	1457,95
456,76	1514,06
456,96	1485,19
457,17	1415,15
457,37	1545,81
457,58	1490,31
457,78	1490,51
457,99	1489,90
458,19	1505,26
458,39	1503,00
458,60	1494,81
458,80	1462,86
459,01	1481,09
459,21	1441,77
459,42	1482,52
459,62	1534,54
459,82	1464,30
460,03	1456,72
460,23	1502,80
460,44	1506,08
460,64	1467,57
460,85	1501,37
461,05	1459,79
461,25	1462,04
461,46	1481,91
461,66	1472,08
461,87	1472,90
462,07	1517,75
462,27	1502,19
462,48	1529,22
462,68	1478,84
462,89	1444,02
463,09	1842,15
463,29	1511,81
463,50	1510,17
463,70	1439,52
463,91	1501,16
464,11	1511,20
464,31	1504,03
464,52	1520,62
464,72	1584,51
464,93	1441,77
465,13	1525,12
465,33	1499,32
465,54	1463,48
465,74	1530,65
465,95	1487,23
466,15	1446,28
466,35	1468,39
466,56	1515,91
466,76	1524,51
466,96	1507,71
467,17	1546,42
467,37	1530,45
467,58	1502,39
467,78	1496,86
467,98	1479,45
468,19	1475,36
468,39	1484,98
468,59	1535,16
468,80	1532,50
469,00	1458,15
469,21	1466,76
469,41	1477,00
469,61	1500,55
469,82	1488,67
470,02	1537,61
470,22	1449,96
470,43	1470,03
470,63	1463,07
470,83	1455,70
471,04	1459,38
471,24	1470,44
471,45	1528,60
471,65	1567,31
471,85	1485,60
472,06	1499,11
472,26	1530,24
472,46	1482,93
472,67	1589,63
472,87	1473,10
473,07	1506,69
473,28	1489,08
473,48	1516,93
473,68	1561,37
473,89	1481,71
474,09	1519,59
474,29	1440,95
474,50	1506,49
474,70	1465,94
474,90	1575,50
475,11	1464,50
475,31	1540,28
475,51	1504,85
475,72	1529,22
475,92	1489,49
476,12	1476,79
476,33	1594,55
476,53	1495,63
476,73	1473,92
476,93	1486,42
477,14	1463,89
477,34	1514,06
477,54	1538,02
477,75	1481,09
477,95	1473,72
478,15	1532,70
478,36	1517,14
478,56	1477,81
478,76	1507,71
478,97	1488,67
479,17	1479,04
479,37	1490,92
479,57	1498,09
479,78	1470,44
479,98	1510,17
480,18	1520,00
480,39	1509,15
480,59	1476,79
480,79	1521,44
480,99	1491,13
481,20	1493,17
481,40	1566,29
481,60	1465,73
481,81	1537,82
482,01	1522,26
482,21	1473,10
482,41	1488,26
482,62	1480,68
482,82	1494,81
483,02	1570,38
483,23	1418,42
483,43	1523,48
483,63	1493,79
483,83	1482,11
484,04	1572,43
484,24	1499,32
484,44	1463,68
484,64	1476,38
484,85	1494,61
485,05	1511,81
485,25	1492,56
485,45	1435,63
485,66	1489,08
485,86	1459,38
486,06	1482,73
486,26	1503,82
486,47	1490,72
486,67	1460,82
486,87	1503,00
487,07	1529,42
487,28	1463,48
487,48	1505,05
487,68	1463,27
487,88	1495,43
488,09	1496,66
488,29	1529,83
488,49	1531,47
488,69	1483,75
488,90	1515,91
489,10	1490,31
489,30	1463,89
489,50	1482,73
489,71	1547,04
489,91	1483,75
490,11	1508,53
490,31	1514,68
490,52	1494,81
490,72	1489,08
490,92	1567,11
491,12	1496,86
491,32	1460,20
491,53	1531,27
491,73	1512,02
491,93	1453,03
492,13	1505,05
492,33	1482,11
492,54	1499,52
492,74	1524,92
492,94	1498,70
493,14	1499,11
493,35	1462,66
493,55	1462,25
493,75	1503,82
493,95	1510,17
494,15	1476,38
494,36	1522,05
494,56	1506,49
494,76	1484,98
494,96	1492,76
495,16	1480,89
495,37	1552,77
495,57	1464,91
495,77	1497,47
495,97	1496,66
496,17	1492,35
496,37	1532,50
496,58	1524,92
496,78	1464,71
496,98	1431,94
497,18	1536,59
497,38	1541,71
497,59	1592,30
497,79	1453,24
497,99	1564,65
498,19	1501,57
498,39	1592,09
498,59	1450,17
498,80	1562,80
499,00	1535,16
499,20	1486,21
499,40	1424,16
499,60	1509,56
499,80	1532,50
500,01	1491,95
500,21	1499,52
500,41	1524,10
500,61	1535,16
500,81	1514,47
501,01	1548,88
501,22	1495,84
501,42	1462,45
501,62	1502,39
501,82	1549,08
502,02	1489,08
502,22	1472,28
502,42	1513,65
502,63	1562,80
502,83	1523,89
503,03	1480,89
503,23	1482,32
503,43	1477,61
503,63	1571,20
503,83	1558,50
504,04	1488,05
504,24	1499,11
504,44	1501,98
504,64	1490,72
504,84	1561,78
505,04	1499,11
505,24	1463,27
505,44	1468,19
505,65	1556,05
505,85	1581,24
506,05	1487,85
506,25	1485,80
506,45	1524,51
506,65	1456,52
506,85	1428,66
507,05	1528,60
507,26	1514,88
507,46	1568,13
507,66	1475,15
507,86	1468,39
508,06	1493,17
508,26	1447,71
508,46	1495,22
508,66	1467,16
508,86	1549,70
509,06	1493,38
509,27	1506,49
509,47	1511,40
509,67	1450,17
509,87	1486,42
510,07	1540,69
510,27	1508,33
510,47	1552,57
510,67	1530,24
510,87	1541,71
511,07	1486,21
511,28	1495,43
511,48	1548,26
511,68	1488,05
511,88	1455,70
512,08	1475,15
512,28	1475,97
512,48	1543,55
512,68	1455,90
512,88	1486,62
513,08	1566,29
513,28	1563,21
513,48	1544,17
513,68	1541,30
513,89	1558,91
514,09	1529,42
514,29	1449,96
514,49	1503,82
514,69	1506,90
514,89	1499,73
515,09	1503,41
515,29	1533,11
515,49	1469,01
515,69	1541,71
515,89	1530,86
516,09	1486,21
516,29	1418,22
516,49	1452,62
516,69	1509,76
516,89	1474,13
517,09	1488,87
517,29	1514,88
517,50	1436,85
517,70	1461,02
517,90	1503,62
518,10	1492,76
518,30	1496,86
518,50	1517,34
518,70	1515,70
518,90	1506,90
519,10	1504,64
519,30	1427,02
519,50	1482,32
519,70	1488,46
519,90	1538,43
520,10	1535,36
520,30	1512,02
520,50	1464,91
520,70	1515,91
520,90	1585,33
521,10	1474,13
521,30	1490,92
521,50	1565,88
521,70	1558,09
521,90	1550,11
522,10	1562,80
522,30	1529,01
522,50	1487,44
522,70	1505,26
522,90	1512,83
523,10	1555,23
523,30	1507,92
523,50	1563,42
523,70	1493,58
523,90	1476,18
524,10	1511,61
524,30	1491,33
524,50	1532,70
524,70	1568,13
524,90	1526,15
525,10	1523,48
525,30	1506,49
525,50	1478,02
525,70	1469,83
525,90	1525,12
526,10	1543,96
526,30	1527,17
526,50	1595,37
526,70	1546,42
526,90	1558,50
527,10	1564,65
527,30	1576,73
527,50	1591,27
527,70	1590,04
527,90	1584,72
528,10	1593,11
528,30	1557,69
528,50	1568,13
528,70	1568,95
528,90	1583,08
529,10	1583,90
529,30	1561,58
529,50	1664,18
529,70	1682,61
529,90	1822,49
530,10	2786,88
530,29	7004,26
530,49	16688,90
530,69	31034,71
530,89	46432,98
531,09	59287,06
531,29	61404,66
531,49	52628,50
531,69	36290,42
531,89	24588,32
532,09	15716,93
532,29	10767,20
532,49	7732,31
532,69	6086,15
532,89	4866,18
533,09	3957,29
533,29	3298,25
533,49	2818,82
533,68	2443,43
533,88	2100,40
534,08	1834,37
534,28	1700,02
534,48	1647,59
534,68	1590,25
534,88	1589,02
535,08	1556,46
535,28	1629,98
535,48	1569,36
535,68	1567,72
535,88	1606,22
536,08	1536,18
536,27	1526,15
536,47	1580,21
536,67	1552,77
536,87	1502,39
537,07	1513,86
537,27	1574,68
537,47	1523,89
537,67	1466,96
537,87	1491,33
538,07	1510,17
538,27	1575,09
538,46	1555,64
538,66	1505,05
538,86	1463,68
539,06	1504,44
539,26	1520,82
539,46	1529,83
539,66	1519,18
539,86	1494,81
540,06	1525,53
540,25	1582,06
540,45	1476,79
540,65	1506,49
540,85	1491,74
541,05	1525,94
541,25	1538,84
541,45	1489,49
541,65	1535,57
541,85	1527,99
542,04	1533,52
542,24	1536,59
542,44	1544,37
542,64	1521,03
542,84	1497,68
543,04	1435,63
543,24	1542,73
543,43	1470,44
543,63	1586,15
543,83	1519,80
544,03	1485,19
544,23	1529,83
544,43	1500,96
544,63	1521,64
544,82	1505,26
545,02	1499,11
545,22	1542,73
545,42	1514,47
545,62	1523,48
545,82	1500,55
546,02	1479,25
546,21	1505,46
546,41	1515,70
546,61	1465,94
546,81	1478,63
547,01	1563,83
547,21	1550,72
547,40	1505,26
547,60	1528,81
547,80	1506,08
548,00	1457,74
548,20	1505,26
548,40	1552,36
548,59	1481,30
548,79	1559,12
548,99	1548,47
549,19	1517,75
549,39	1493,79
549,59	1497,47
549,78	1549,90
549,98	1493,38
550,18	1503,00
550,38	1544,78
550,58	1517,95
550,77	1538,02
550,97	1493,38
551,17	1539,05
551,37	1543,14
551,57	1496,86
551,76	1524,30
551,96	1505,26
552,16	1545,81
552,36	1507,71
552,56	1546,01
552,75	1498,29
552,95	1482,32
553,15	1525,74
553,35	1594,75
553,55	1471,47
553,74	1561,37
553,94	1437,88
554,14	1476,38
554,34	1515,09
554,54	1540,89
554,73	1444,23
554,93	1518,98
555,13	1503,62
555,33	1464,50
555,53	1462,04
555,72	1520,62
555,92	1591,07
556,12	1523,28
556,32	1537,41
556,51	1505,05
556,71	1486,62
556,91	1534,13
557,11	1507,51
557,30	1510,17
557,50	1534,34
557,70	1484,37
557,90	1472,49
558,10	1496,66
558,29	1519,39
558,49	1532,70
558,69	1534,75
558,89	1521,44
559,08	1514,68
559,28	1456,72
559,48	1456,92
559,68	1537,41
559,87	1548,67
560,07	1503,62
560,27	1508,94
560,47	1480,07
560,66	1496,04
560,86	1525,33
561,06	1499,52
561,25	1453,24
561,45	1496,86
561,65	1501,98
561,85	1490,72
562,04	1521,85
562,24	1517,54
562,44	1496,04
562,64	1581,03
562,83	1616,26
563,03	1555,84
563,23	1502,39
563,42	1518,36
563,62	1444,43
563,82	1486,62
564,02	1462,25
564,21	1499,73
564,41	1483,55
564,61	1481,91
564,80	1487,64
565,00	1542,12
565,20	1501,37
565,40	1570,18
565,59	1457,54
565,79	1506,08
565,99	1523,07
566,18	1506,69
566,38	1529,42
566,58	1503,41
566,78	1481,71
566,97	1547,65
567,17	1555,02
567,37	1454,67
567,56	1533,31
567,76	1521,44
567,96	1455,08
568,15	1483,75
568,35	1506,90
568,55	1540,69
568,74	1480,48
568,94	1513,24
569,14	1466,96
569,33	1485,60
569,53	1468,19
569,73	1494,61
569,92	1553,79
570,12	1514,06
570,32	1503,82
570,52	1472,49
570,71	1489,28
570,91	1568,95
571,11	1483,55
571,30	1516,11
571,50	1498,29
571,70	1537,21
571,89	1535,98
572,09	1545,19
572,28	1456,72
572,48	1443,00
572,68	1438,49
572,87	1503,41
573,07	1494,40
573,27	1549,90
573,46	1529,22
573,66	1477,20
573,86	1496,45
574,05	1463,07
574,25	1455,49
574,45	1450,99
574,64	1523,69
574,84	1614,62
575,04	1510,38
575,23	1543,55
575,43	1491,54
575,62	1518,57
575,82	1520,00
576,02	1445,46
576,21	1500,96
576,41	1465,32
576,61	1515,29
576,80	1515,91
577,00	1474,74
577,19	1431,73
577,39	1495,84
577,59	1521,64
577,78	1527,38
577,98	1524,92
578,18	1498,50
578,37	1508,33
578,57	1513,45
578,76	1530,04
578,96	1485,80
579,16	1515,29
579,35	1529,22
579,55	1471,47
579,74	1554,20
579,94	1415,97
580,14	1598,44
580,33	1524,51
580,53	1483,75
580,72	1515,50
580,92	1504,23
581,12	1468,19
581,31	1505,67
581,51	1547,65
581,70	1480,89
581,90	1470,44
582,10	1519,80
582,29	1532,90
582,49	1500,14
582,68	1456,31
582,88	1477,20
583,07	1651,48
583,27	1537,00
583,47	1579,80
583,66	1496,66
583,86	1515,50
584,05	1497,47
584,25	1496,66
584,44	1540,28
584,64	1568,33
584,84	1434,60
585,03	1506,08
585,23	1454,47
585,42	1483,55
585,62	1465,53
585,81	1464,91
586,01	1508,12
586,20	1517,54
586,40	1486,62
586,60	1550,72
586,79	1475,97
586,99	1534,54
587,18	1518,98
587,38	1443,41
587,57	1440,54
587,77	1474,54
587,96	1532,50
588,16	1472,90
588,35	1492,15
588,55	1566,90
588,75	1540,69
588,94	1523,07
589,14	1488,67
589,33	1467,57
589,53	1518,77
589,72	1457,33
589,92	1456,92
590,11	1478,02
590,31	1525,12
590,50	1551,54
590,70	1542,33
590,89	1549,29
591,09	1500,96
591,28	1565,06
591,48	1478,63
591,67	1561,78
591,87	1467,57
592,06	1512,63
592,26	1480,48
592,45	1509,97
592,65	1539,66
592,84	1462,45
593,04	1486,42
593,23	1516,73
593,43	1458,36
593,62	1493,79
593,82	1514,47
594,01	1458,77
594,21	1507,10
594,40	1489,49
594,60	1431,73
594,79	1492,15
594,99	1522,05
595,18	1446,07
595,38	1535,36
595,57	1497,27
595,77	1508,53
595,96	1538,64
596,16	1504,44
596,35	1494,81
596,55	1514,47
596,74	1511,40
596,94	1490,10
597,13	1523,89
597,33	1449,55
597,52	1506,49
597,72	1460,82
597,91	1585,95
598,11	1462,45
598,30	1511,40
598,50	1482,11
598,69	1468,80
598,88	1474,13
599,08	1498,91
599,27	1494,40
599,47	1430,30
599,66	1498,91
599,86	1508,74
600,05	1495,02
600,25	1525,12
600,44	1542,12
600,64	1547,65
600,83	1500,14
601,02	1563,42
601,22	1503,21
601,41	1524,30
601,61	1482,93
601,80	1510,99
602,00	1494,40
602,19	1471,06
602,38	1470,44
602,58	1478,22
602,77	1454,88
602,97	1440,95
603,16	1509,15
603,36	1537,00
603,55	1506,69
603,74	1475,56
603,94	1461,43
604,13	1561,17
604,33	1488,87
604,52	1487,03
604,72	1497,47
604,91	1498,29
605,10	1456,31
605,30	1466,76
605,49	1545,19
605,69	1536,39
605,88	1475,77
606,07	1521,23
606,27	1559,12
606,46	1516,93
606,66	1497,07
606,85	1450,78
607,04	1473,92
607,24	1476,18
607,43	1532,70
607,63	1488,26
607,82	1491,74
608,01	1496,45
608,21	1458,36
608,40	1510,79
608,60	1472,28
608,79	1489,69
608,98	1501,78
609,18	1554,20
609,37	1547,65
609,57	1506,69
609,76	1546,01
609,95	1477,81
610,15	1509,76
610,34	1521,23
610,53	1466,55
610,73	1494,40
610,92	1475,36
611,11	1475,15
611,31	1513,04
611,50	1470,85
611,70	1518,98
611,89	1499,52
612,08	1476,38
612,28	1465,94
612,47	1531,68
612,66	1501,57
612,86	1585,13
613,05	1531,68
613,24	1552,77
613,44	1505,05
613,63	1476,18
613,82	1526,97
614,02	1492,35
614,21	1506,90
614,41	1469,83
614,60	1544,37
614,79	1480,07
614,99	1549,90
615,18	1478,02
615,37	1532,70
615,57	1491,54
615,76	1479,86
615,95	1498,70
616,15	1494,81
616,34	1570,79
616,53	1548,26
616,73	1507,30
616,92	1517,34
617,11	1500,75
617,30	1488,87
617,50	1518,57
617,69	1576,73
617,88	1553,79
618,08	1572,84
618,27	1499,52
618,46	1488,05
618,66	1481,91
618,85	1471,47
619,04	1523,69
619,24	1583,90
619,43	1546,42
619,62	1471,06
619,82	1477,61
620,01	1463,68
620,20	1429,48
620,39	1502,39
620,59	1531,27
620,78	1538,23
620,97	1544,78
621,17	1539,05
621,36	1491,74
621,55	1486,42
621,74	1487,64
621,94	1404,29
622,13	1576,12
622,32	1497,27
622,52	1488,67
622,71	1514,27
622,90	1574,07
623,09	1480,27
623,29	1474,95
623,48	1496,86
623,67	1445,05
623,86	1532,09
624,06	1424,57
624,25	1520,00
624,44	1572,43
624,64	1525,12
624,83	1455,08
625,02	1495,22
625,21	1558,09
625,41	1464,91
625,60	1513,65
625,79	1443,00
625,98	1464,71
626,18	1464,30
626,37	1526,35
626,56	1489,49
626,75	1466,35
626,95	1471,06
627,14	1493,79
627,33	1514,27
627,52	1449,55
627,72	1490,51
627,91	1572,43
628,10	1470,24
628,29	1497,47
628,49	1517,95
628,68	1560,76
628,87	1483,14
629,06	1564,03
629,25	1505,87
629,45	1481,91
629,64	1582,47
629,83	1514,88
630,02	1458,97
630,22	1529,83
630,41	1452,01
630,60	1493,58
630,79	1479,86
630,98	1496,04
631,18	1435,01
631,37	1449,35
631,56	1483,55
631,75	1534,13
631,94	1483,75
632,14	1453,65
632,33	1446,28
632,52	1420,88
632,71	1868,98
632,90	1498,09
633,10	1489,08
633,29	1497,07
633,48	1488,05
633,67	1481,91
633,86	1528,40
634,06	1482,52
634,25	1516,73
634,44	1538,64
634,63	1503,00
634,82	1466,55
635,02	1493,99
635,21	1462,45
635,40	1445,25
635,59	1447,30
635,78	1532,90
635,97	1484,78
636,17	1477,81
636,36	1507,10
636,55	1529,22
636,74	1508,74
636,93	1492,15
637,12	1505,87
637,32	1503,00
637,51	1469,62
637,70	1553,79
637,89	1484,16
638,08	1457,74
638,27	1558,50
638,47	1491,54
638,66	1500,55
638,85	1489,28
639,04	1486,01
639,23	1515,91
639,42	1492,35
639,62	1545,40
639,81	1518,36
640,00	1531,68
640,19	1498,29
640,38	1489,49
640,57	1510,17
640,76	1542,73
640,95	1473,10
641,15	1437,26
641,34	1549,49
641,53	1481,30
641,72	1539,87
641,91	1541,30
642,10	1444,84
642,29	1537,41
642,49	1473,31
642,68	1458,97
642,87	1495,43
643,06	1482,73
643,25	1525,94
643,44	1463,68
643,63	1504,64
643,82	1467,98
644,01	1482,52
644,21	1470,65
644,40	1548,88
644,59	1471,26
644,78	1498,50
644,97	1622,61
645,16	1514,88
645,35	1497,68
645,54	1485,60
645,73	1503,21
645,92	1518,36
646,12	1504,44
646,31	1485,60
646,50	1521,44
646,69	1501,16
646,88	1477,20
647,07	1516,52
647,26	1482,32
647,45	1485,80
647,64	1503,62
647,83	1478,22
648,02	1514,88
648,22	1510,58
648,41	1464,30
648,60	1489,28
648,79	1484,57
648,98	1547,85
649,17	1463,27
649,36	1435,42
649,55	1484,37
649,74	1535,98
649,93	1477,40
650,12	1485,80
650,31	1543,55
650,50	1523,69
650,69	1537,82
650,88	1546,83
651,08	1453,03
651,27	1541,30
651,46	1540,48
651,65	1456,52
651,84	1479,66
652,03	1473,10
652,22	1477,61
652,41	1490,10
652,60	1541,92
652,79	1553,18
652,98	1498,50
653,17	1479,86
653,36	1531,06
653,55	1509,76
653,74	1546,83
653,93	1490,51
654,12	1475,97
654,31	1447,30
654,50	1499,93
654,69	1561,78
654,88	1505,87
655,07	1456,72
655,26	1478,63
655,45	1480,48
655,64	1434,40
655,83	1501,16
656,02	1516,11
656,21	1459,79
656,40	1457,13
656,59	1495,22
656,78	1467,16
656,97	1479,66
657,17	1545,19
657,36	1467,98
657,55	1617,08
657,74	1501,78
657,93	1514,68
658,12	1525,12
658,31	1510,79
658,50	1442,59
658,69	1430,92
658,87	1500,96
659,06	1512,02
659,25	1485,19
659,44	1467,16
659,63	1553,38
659,82	1504,03
660,01	1534,34
660,20	1500,55
660,39	1528,60
660,58	1479,04
660,77	1474,95
660,96	1513,04
661,15	1476,79
661,34	1496,25
661,53	1481,30
661,72	1528,19
661,91	1460,82
662,10	1483,14
662,29	1424,36
662,48	1456,72
662,67	1447,30
662,86	1466,14
663,05	1461,84
663,24	1539,05
663,43	1493,99
663,62	1569,77
663,81	1483,96
664,00	1562,60
664,19	1432,96
664,38	1508,33
664,57	1462,45
664,76	1495,63
664,94	1451,19
665,13	1460,82
665,32	1444,84
665,51	1490,72
665,70	1420,68
665,89	1519,59
666,08	1480,07
666,27	1468,39
666,46	1512,02
666,65	1499,93
666,84	1435,83
667,03	1476,59
667,22	1418,22
667,41	1549,49
667,60	1477,81
667,78	1501,37
667,97	1506,90
668,16	1529,63
668,35	1491,74
668,54	1475,36
668,73	1469,21
668,92	1497,27
669,11	1455,29
669,30	1480,07
669,49	1479,25
669,68	1539,05
669,86	1476,18
670,05	1468,39
670,24	1465,12
670,43	1508,12
670,62	1518,16
670,81	1454,26
671,00	1483,96
671,19	1565,47
671,38	1487,23
671,57	1498,50
671,75	1468,60
671,94	1526,15
672,13	1499,32
672,32	1457,95
672,51	1474,13
672,70	1523,07
672,89	1478,22
673,08	1471,06
673,26	1469,01
673,45	1452,01
673,64	1483,34
673,83	1477,40
674,02	1481,50
674,21	1594,96
674,40	1501,78
674,59	1530,45
674,77	1518,77
674,96	1559,32
675,15	1540,69
675,34	1521,44
675,53	1575,50
675,72	1485,39
675,91	1512,02
676,09	1550,93
676,28	1614,00
676,47	1497,27
676,66	1436,65
676,85	1541,92
677,04	1505,67
677,22	1539,87
677,41	1517,14
677,60	1528,40
677,79	1479,66
677,98	1480,07
678,17	1459,59
678,36	1498,29
678,54	1425,39
678,73	1527,38
678,92	1452,21
679,11	1530,65
679,30	1455,29
679,48	1506,90
679,67	1494,81
679,86	1460,00
680,05	1554,20
680,24	1469,01
680,43	1486,62
680,61	1455,70
680,80	1449,76
680,99	1459,59
681,18	1469,01
681,37	1523,89
681,55	1557,89
681,74	1538,84
681,93	1471,88
682,12	1427,64
682,31	1481,50
682,49	1458,77
682,68	1539,25
682,87	1496,66
683,06	1461,64
683,25	1528,19
683,43	1506,49
683,62	1468,39
683,81	1549,49
684,00	1578,78
684,19	1500,34
684,37	1476,18
684,56	1473,72
684,75	1574,89
684,94	1468,39
685,12	1565,67
685,31	1497,68
685,50	1508,94
685,69	1496,25
685,88	1495,63
686,06	1479,25
686,25	1489,28
686,44	1511,81
686,63	1471,26
686,81	1522,05
687,00	1488,26
687,19	1491,74
687,38	1520,00
687,56	1450,17
687,75	1532,29
687,94	1463,07
688,13	1464,91
688,31	1483,55
688,50	1480,89
688,69	1483,96
688,88	1538,64
689,06	1526,76
689,25	1486,21
689,44	1451,81
689,63	1488,46
689,81	1439,31
690,00	1456,52
690,19	1507,71
690,38	1500,34
690,56	1454,47
690,75	1571,61
690,94	1476,38
691,13	1448,94
691,31	1500,34
691,50	1457,95
691,69	1528,60
691,87	1475,77
692,06	1507,10
692,25	1503,41
692,44	1467,57
692,62	1465,73
692,81	1617,90
693,00	1480,68
693,18	1483,96
693,37	1536,80
693,56	1447,71
693,75	1454,06
693,93	1525,74
694,12	1587,18
694,31	1486,83
694,49	1443,41
694,68	1473,51
694,87	1496,45
695,05	1487,03
695,24	1471,67
695,43	1456,11
695,62	1471,88
695,80	1455,29
695,99	1527,38
696,18	1453,85
696,36	1567,92
696,55	1478,84
696,74	1435,01
696,92	1541,30
697,11	1501,16
697,30	1530,24
697,48	1490,31
697,67	1466,14
697,86	1500,75
698,04	1418,42
698,23	1480,07
698,42	1509,76
698,60	1451,81
698,79	1486,01
698,98	1523,28
699,16	1469,62
699,35	1461,84
699,54	1516,11
699,72	1472,49
699,91	1559,12
700,10	1475,15
700,28	1503,21
700,47	1609,91
700,66	1495,22
700,84	1490,92
701,03	1456,92
701,21	1509,35
701,40	1460,20
701,59	1502,39
701,77	1473,92
701,96	1480,27
702,15	1477,81
702,33	1512,02
702,52	1455,29
702,71	1522,46
702,89	1477,61
703,08	1506,90
703,26	1536,59
703,45	1521,85
703,64	1496,25
703,82	1541,30
704,01	1480,48
704,20	1517,14
704,38	1508,74
704,57	1489,69
704,75	1444,43
704,94	1465,32
705,13	1475,36
705,31	1533,11
705,50	1486,01
705,68	1513,24
705,87	1517,14
706,06	1532,09
706,24	1443,82
706,43	1461,43
706,61	1501,16
706,80	1460,00
706,99	1530,04
707,17	1556,05
707,36	1508,12
707,54	1504,64
707,73	1465,53
707,92	1495,84
708,10	1465,12
708,29	1467,78
708,47	1479,45
708,66	1505,05
708,84	1482,52
709,03	1527,99
709,22	1472,28
709,40	1520,41
709,59	1511,61
709,77	1533,72
709,96	1547,85
710,14	1465,94
710,33	1542,12
710,52	1531,06
710,70	1568,13
710,89	1465,12
711,07	1471,06
711,26	1486,83
711,44	1542,53
711,63	1491,13
711,81	1495,43
712,00	1467,78
712,19	1523,28
712,37	1540,07
712,56	1532,70
712,74	1484,57
712,93	1512,42
713,11	1483,14
713,30	1479,86
713,48	1524,92
713,67	1459,18
713,85	1471,06
714,04	1511,81
714,22	1548,67
714,41	1510,79
714,59	1509,76
714,78	1517,75
714,97	1508,12
715,15	1486,21
715,34	1528,40
715,52	1451,40
715,71	1488,05
715,89	1478,43
716,08	1468,80
716,26	1442,59
716,45	1469,42
716,63	1480,07
716,82	1510,79
717,00	1444,43
717,19	1505,05
717,37	1487,44
717,56	1484,57
717,74	1465,73
717,93	1504,64
718,11	1537,21
718,30	1446,07
718,48	1465,73
718,67	1572,84
718,85	1489,28
719,04	1489,08
719,22	1449,35
719,41	1529,22
719,59	1543,96
719,78	1496,04
719,96	1448,53
720,15	1522,87
720,33	1514,06
720,52	1482,73
720,70	1467,98
720,88	1526,56
721,07	1461,23
721,25	1462,86
721,44	1445,87
721,62	1493,38
721,81	1433,37
721,99	1424,77
722,18	1484,98
722,36	1492,15
722,55	1478,22
722,73	1478,84
722,92	1532,90
723,10	1474,95
723,28	1514,06
723,47	1515,91
723,65	1549,08
723,84	1516,11
724,02	1442,79
724,21	1481,30
724,39	1464,71
724,58	1466,35
724,76	1527,17
724,94	1437,88
725,13	1510,38
725,31	1504,23
725,50	1527,17
725,68	1519,59
725,87	1484,98
726,05	1517,95
726,23	1462,25
726,42	1497,47
726,60	1506,28
726,79	1450,58
726,97	1513,45
727,16	1552,57
727,34	1472,69
727,52	1464,71
727,71	1548,88
727,89	1431,53
728,08	1480,89
728,26	1494,20
728,44	1493,17
728,63	1534,34
728,81	1471,06
729,00	1490,92
729,18	1495,22
729,36	1469,21
729,55	1498,29
729,73	1535,98
729,92	1501,37
730,10	1482,93
730,28	1466,55
730,47	1451,60
730,65	1497,27
730,84	1567,31
731,02	1411,05
731,20	1540,07
731,39	1514,47
731,57	1518,77
731,75	1514,68
731,94	1484,78
732,12	1535,98
732,31	1485,19
732,49	1436,65
732,67	1490,51
732,86	1435,22
733,04	1492,35
733,22	1446,28
733,41	1469,21
733,59	1478,43
733,78	1508,94
733,96	1520,62
734,14	1424,57
734,33	1441,36
734,51	1512,22
734,69	1513,65
734,88	1482,32
735,06	1465,73
735,24	1489,49
735,43	1536,18
735,61	1451,81
735,79	1514,47
735,98	1477,00
736,16	1563,62
736,34	1508,33
736,53	1500,96
736,71	1533,31
736,89	1509,35
737,08	1534,54
737,26	1490,10
737,44	1467,57
737,63	1488,67
737,81	1443,61
737,99	1530,45
738,18	1513,65
738,36	1578,37
738,54	1515,91
738,73	1517,34
738,91	1539,05
739,09	1484,78
739,28	1486,62
739,46	1470,65
739,64	1467,98
739,82	1538,43
740,01	1457,95
740,19	1590,45
740,37	1494,40
740,56	1499,32
740,74	1466,35
740,92	1466,55
741,11	1439,93
741,29	1487,85
741,47	1556,66
741,65	1465,73
741,84	1487,44
742,02	1572,02
742,20	1462,45
742,39	1490,72
742,57	1504,64
742,75	1464,50
742,93	1477,61
743,12	1481,71
743,30	1475,15
743,48	1482,73
743,67	1487,44
743,85	1463,89
744,03	1557,69
744,21	1487,03
744,40	1478,22
744,58	1491,95
744,76	1492,97
744,94	1505,67
745,13	1470,85
745,31	1460,00
745,49	1479,45
745,67	1438,49
745,86	1524,71
746,04	1504,23
746,22	1489,90
746,40	1444,64
746,59	1456,11
746,77	1511,61
746,95	1538,23
747,13	1503,21
747,32	1503,62
747,50	1508,33
747,68	1483,55
747,86	1473,31
748,05	1532,90
748,23	1484,57
748,41	1494,81
748,59	1459,18
748,77	1474,74
748,96	1470,44
749,14	1445,25
749,32	1594,75
749,50	1513,04
749,69	1516,32
749,87	1516,11
750,05	1512,42
750,23	1454,67
750,41	1484,98
750,60	1508,74
750,78	1461,64
750,96	1496,25
751,14	1503,00
751,32	1499,11
751,51	1472,90
751,69	1471,06
751,87	1423,13
752,05	1518,36
752,23	1497,88
752,42	1489,28
752,60	1509,76
752,78	1479,25
752,96	1465,12
753,14	1481,50
753,33	1455,70
753,51	1472,08
753,69	1500,75
753,87	1498,09
754,05	1524,10
754,23	1502,19
754,42	1468,60
754,60	1483,34
754,78	1554,82
754,96	1438,49
755,14	1485,19
755,32	1530,24
755,51	1440,34
755,69	1512,83
755,87	1455,70
756,05	1466,55
756,23	1488,67
756,41	1477,20
756,60	1513,86
756,78	1503,82
756,96	1474,33
757,14	1515,29
757,32	1451,40
757,50	1506,08
757,68	1486,21
757,87	1463,68
758,05	1498,09
758,23	1489,49
758,41	1561,17
758,59	1537,82
758,77	1539,46
758,95	1539,87
759,14	1515,09
759,32	1544,78
759,50	1455,90
759,68	1471,88
759,86	1471,06
760,04	1505,46
760,22	1496,45
760,40	1638,17
760,59	1496,25
760,77	1531,68
760,95	1475,56
761,13	1452,01
761,31	1561,78
761,49	1523,69
761,67	1527,99
761,85	1469,62
762,03	1471,06
762,22	1524,51
762,40	1527,58
762,58	1485,39
762,76	1480,48
762,94	1503,41
763,12	1507,30
763,30	1525,74
763,48	1507,10
763,66	1454,26
763,84	1458,56
764,02	1479,25
764,21	1480,89
764,39	1620,56
764,57	1490,92
764,75	1492,56
764,93	1517,95
765,11	1476,59
765,29	1491,95
765,47	1486,62
765,65	1482,11
765,83	1504,03
766,01	1481,91
766,19	1502,59
766,37	1597,83
766,56	1519,80
766,74	1476,38
766,92	1472,49
767,10	1465,94
767,28	1503,00
767,46	1502,19
767,64	1480,68
767,82	1490,92
768,00	1484,57
768,18	1487,03
768,36	1505,05
768,54	1552,97
768,72	1538,02
768,90	1440,75
769,08	1459,79
769,26	1501,57
769,44	1476,18
769,62	1492,15
769,80	1516,32
769,98	1498,91
770,16	1455,08
770,34	1497,07
770,52	1457,33
770,71	1491,54
770,89	1474,95
771,07	1569,77
771,25	1477,81
771,43	1533,52
771,61	1534,54
771,79	1485,39
771,97	1472,08
772,15	1492,15
772,33	1472,90
772,51	1553,38
772,69	1460,41
772,87	1498,29
773,05	1527,78
773,23	1542,73
773,41	1490,51
773,59	1542,12
773,77	1496,86
773,95	1525,74
774,13	1522,05
774,31	1525,53
774,49	1506,69
774,67	1469,83
774,85	1506,28
775,03	1499,93
775,21	1496,04
775,39	1447,71
775,57	1470,85
775,75	1525,94
775,93	1472,28
776,10	1470,24
776,28	1515,29
776,46	1451,19
776,64	1484,78
776,82	1457,54
777,00	2344,11
777,18	1443,41
777,36	1496,86
777,54	1456,31
777,72	1455,49
777,90	1520,00
778,08	1467,37
778,26	1457,13
778,44	1473,72
778,62	1487,44
778,80	1567,52
778,98	1506,28
779,16	1469,83
779,34	1558,30
779,52	1480,07
779,70	1527,78
779,88	1460,82
780,05	1466,96
780,23	1479,25
780,41	1466,55
780,59	1479,04
780,77	1527,99
780,95	1490,10
781,13	1542,53
781,31	1482,11
781,49	1543,76
781,67	1495,22
781,85	1491,33
782,03	1479,25
782,21	1520,00
782,39	1498,09
782,56	1515,09
782,74	1532,90
782,92	1505,05
783,10	1610,93
783,28	1464,30
783,46	1462,66
783,64	1501,16
783,82	1482,11
784,00	1542,73
784,18	1479,66
784,35	1441,16
784,53	1480,48
784,71	1468,19
784,89	1520,41
785,07	1474,54
785,25	1518,98
785,43	1521,03
785,61	1454,88
785,79	1496,86
785,96	1555,23
786,14	1469,21
786,32	1525,33
786,50	1509,97
786,68	1424,36
786,86	1466,76
787,04	1499,32
787,22	1480,48
787,39	1468,19
787,57	1464,50
787,75	1497,47
787,93	1530,86
788,11	1468,80
788,29	1504,64
788,47	1492,76
788,65	1471,06
788,82	1496,45
789,00	1473,10
789,18	1510,79
789,36	1501,16
789,54	1447,91
789,72	1461,02
789,89	1475,77
790,07	1540,69
790,25	1520,21
790,43	1534,95
790,61	1510,38
790,79	1502,59
790,96	1491,13
791,14	1551,34
791,32	1456,11
791,50	1510,38
791,68	1538,64
791,86	1500,55
792,03	1479,45
792,21	1481,09
792,39	1463,48
792,57	1444,23
792,75	1449,14
792,93	1493,17
793,10	1469,01
793,28	1477,81
793,46	1444,64
793,64	1531,27
793,82	1546,63
793,99	1533,72
794,17	1447,71
794,35	1503,41
794,53	1483,34
794,71	1456,31
794,88	1448,53
795,06	1480,27
795,24	1461,84
795,42	1471,47
795,60	1509,35
795,77	1474,74
795,95	1495,22
796,13	1485,80
796,31	1533,11
796,49	1534,54
796,66	1488,87
796,84	1448,73
797,02	1540,48
797,20	1501,57
797,37	1485,60
797,55	1433,78
797,73	1454,88
797,91	1435,63
798,08	1528,19
798,26	1519,39
798,44	1462,04
798,62	1460,61
798,80	1462,66
798,97	1456,31
799,15	1474,54
799,33	1571,20
799,51	1545,81
799,68	1486,01
799,86	1509,35
800,04	1492,56
800,22	1510,58
800,39	1473,51
800,57	1573,45
800,75	1506,69
800,93	1525,94
801,10	1496,45
801,28	1544,99
801,46	1467,16
801,63	1498,50
801,81	1521,85
801,99	1465,32
802,17	1482,52
802,34	1554,20
802,52	1465,73
802,70	1529,22
802,88	1506,08
803,05	1533,52
803,23	1471,47
803,41	1470,44
803,58	1512,63
803,76	1505,05
803,94	1550,52
804,12	1527,99
804,29	1453,85
804,47	1543,76
804,65	1501,37
804,82	1482,73
805,00	1481,71
805,18	1486,83
805,35	1496,86
805,53	1505,46
805,71	1507,51
805,89	1510,58
806,06	1536,18
806,24	1446,89
806,42	1469,62
806,59	1482,93
806,77	1546,42
806,95	1500,55
807,12	1520,41
807,30	1522,46
807,48	1438,49
807,65	1466,55
807,83	1496,25
808,01	1531,47
808,18	1489,90
808,36	1509,76
808,54	1436,24
808,71	1483,14
808,89	1508,33
809,07	1508,12
809,24	1526,97
809,42	1564,24
809,60	1463,89
809,77	1516,32
809,95	1543,55
810,13	1475,36
810,30	1513,86
810,48	1561,58
810,66	1487,23
810,83	1520,41
811,01	1516,93
811,18	1488,46
811,36	1408,59
811,54	1495,84
811,71	1516,93
811,89	1514,68
812,07	1469,01
812,24	1593,73
812,42	1477,20
812,59	1512,02
812,77	1519,18
812,95	1495,84
813,12	1522,26
813,30	1504,23
813,48	1483,96
813,65	1510,99
813,83	1537,61
814,00	1539,46
814,18	1543,76
814,36	1481,91
814,53	1486,62
814,71	1492,56
814,88	1548,67
815,06	1461,02
815,24	1547,04
815,41	1473,31
815,59	1502,59
815,76	1477,00
815,94	1547,04
816,12	1484,98
816,29	1550,11
816,47	1504,44
816,64	1566,08
816,82	1474,13
817,00	1536,39
817,17	1495,22
817,35	1600,28
817,52	1484,57
817,70	1511,61
817,87	1534,95
818,05	1467,78
818,23	1492,56
818,40	1547,24
818,58	1514,47
818,75	1450,58
818,93	1487,23
819,10	1513,24
819,28	1478,02
819,46	1500,34
819,63	1458,56
819,81	1546,42
819,98	1458,77
820,16	1539,25
820,33	1438,49
820,51	1549,08
820,68	1490,72
820,86	1523,69
821,03	1554,20
821,21	1512,02
821,39	1599,67
821,56	1481,30
821,74	1468,39
821,91	1462,45
822,09	1507,10
822,26	1491,33
822,44	1461,43
822,61	1463,68
822,79	1549,70
822,96	1492,35
823,14	1463,27
823,31	1448,73
823,49	1514,47
823,66	1509,56
823,84	1487,44
824,01	1489,69
824,19	1428,05
824,36	1528,81
824,54	1528,19
824,71	1552,97
824,89	1510,17
825,06	1563,21
825,24	1492,35
825,41	1507,10
825,59	1514,27
825,76	1504,64
825,94	1481,50
826,11	1550,31
826,29	1471,88
826,46	1491,13
826,64	1538,23
826,81	1532,50
826,99	1481,50
827,16	1458,77
827,34	1478,43
827,51	1486,62
827,69	1573,66
827,86	1501,57
828,04	1498,29
828,21	1501,16
828,39	1525,33
828,56	1498,91
828,74	1529,63
828,91	1491,54
829,09	1612,98
829,26	1507,10
829,43	1537,41
829,61	1487,85
829,78	1473,72
829,96	1535,77
830,13	1477,20
830,31	1543,55
830,48	1525,12
830,66	1497,07
830,83	1487,03
831,01	1495,22
831,18	1474,13
831,35	1485,80
831,53	1558,50
831,70	1530,45
831,88	1597,21
832,05	1493,58
832,23	1484,16
832,40	1532,09
832,57	1538,64
832,75	1477,20
832,92	1551,34
833,10	1579,19
833,27	1530,24
833,45	1506,28
833,62	1484,98
833,79	1521,23
833,97	1460,82
834,14	1505,67
834,32	1526,76
834,49	1469,42
834,66	1494,40
834,84	1482,73
835,01	1519,39
835,19	1458,77
835,36	1477,20
835,53	1563,01
835,71	1520,62
835,88	1524,51
836,06	1535,16
836,23	1579,80
836,40	1455,08
836,58	1463,48
836,75	1488,05
836,93	1479,04
837,10	1529,01
837,27	1508,33
837,45	1478,02
837,62	1450,78
837,79	1470,44
837,97	1550,52
838,14	1460,61
838,32	1487,23
838,49	1470,85
838,66	1505,46
838,84	1521,03
839,01	1555,23
839,18	1521,44
839,36	1486,01
839,53	1452,62
839,70	1553,38
839,88	1497,68
840,05	1542,53
840,23	1477,81
840,40	1471,06
840,57	1521,03
840,75	1538,43
840,92	1538,64
841,09	1522,87
841,27	1530,45
841,44	1526,76
841,61	1543,76
841,79	1487,23
841,96	1521,85
842,13	1441,77
842,31	1502,59
842,48	1502,19
842,65	1455,29
842,83	1495,02
843,00	1521,03
843,17	1483,55
843,35	1542,73
843,52	1476,59
843,69	1536,59
843,86	1463,48
844,04	1484,98
844,21	1474,33
844,38	1531,06
844,56	1481,30
844,73	1524,92
844,90	1526,35
845,08	1490,72
845,25	1487,85
845,42	1528,40
845,60	1519,18
845,77	1503,21
845,94	1475,36
846,11	1503,82
846,29	1566,49
846,46	1509,56
846,63	1483,75
846,81	1527,99
846,98	1505,87
847,15	1507,92
847,32	1525,33
847,50	1486,01
847,67	1466,96
847,84	1487,85
848,01	1534,75
848,19	1525,53
848,36	1506,90
848,53	1481,30
848,71	1538,84
848,88	1488,67
849,05	1448,53
849,22	1491,74
849,40	1508,53
849,57	1560,14
849,74	1502,80
849,91	1477,20
850,09	1469,42
850,26	1460,61
850,43	1471,06
850,60	1497,47
850,78	1516,11
850,95	1478,43
851,12	1487,23
851,29	1502,80
851,47	1548,06
851,64	1483,75
851,81	1506,08
851,98	1498,29
852,15	1557,69
852,33	1452,42
852,50	1494,61
852,67	1537,61
852,84	1506,69
853,02	1534,95
853,19	1564,65
853,36	1475,97
853,53	1451,40
853,70	1576,32
853,88	1529,01
854,05	1539,25
854,22	1488,46
854,39	1524,10
854,56	1514,68
854,74	1465,73
854,91	1539,25
855,08	1458,77
855,25	1505,26
855,42	1473,51
855,60	1514,06
855,77	1528,19
855,94	1575,91
856,11	1481,50
856,28	1477,20
856,46	1542,12
856,63	1489,49
856,80	1481,09
856,97	1544,37
857,14	1523,28
857,31	1481,50
857,49	1484,57
857,66	1536,59
857,83	1481,30
858,00	1515,70
858,17	1496,04
858,34	1500,55
858,52	1484,37
858,69	1491,33
858,86	1511,40
859,03	1505,05
859,20	1566,90
859,37	1517,54
859,55	1505,46
859,72	1523,48
859,89	1496,04
860,06	1526,35
860,23	1538,23
860,40	1473,51
860,57	1535,57
860,75	1448,32
860,92	1539,46
861,09	1523,89
861,26	1565,47
861,43	1482,73
861,60	1494,81
861,77	1479,04
861,95	1446,89
862,12	1517,14
862,29	1465,32
862,46	1505,87
862,63	1540,28
862,80	1537,00
862,97	1570,18
863,14	1468,39
863,31	1568,95
863,49	1503,21
863,66	1508,74
863,83	1507,92
864,00	1564,03
864,17	1460,82
864,34	1528,60
864,51	1454,26
864,68	1510,99
864,85	1483,96
865,02	1500,14
865,20	1528,81
865,37	1484,16
865,54	1496,25
865,71	1556,87
865,88	1447,71
866,05	1454,06
866,22	1472,28
866,39	1484,78
866,56	1496,04
866,73	1493,58
866,90	1569,36
867,07	1543,14
867,25	1478,84
867,42	1581,24
867,59	1478,63
867,76	1541,30
867,93	1483,96
868,10	1517,14
868,27	1466,96
868,44	1530,04
868,61	1487,85
868,78	1537,21
868,95	1488,87
869,12	1504,85
869,29	1510,17
869,46	1521,44
869,63	1512,83
869,80	1463,89
869,97	1541,10
870,14	1514,68
870,32	1482,32
870,49	1510,38
870,66	1559,94
870,83	1501,16
871,00	1462,86
871,17	1495,43
871,34	1496,25
871,51	1512,02
871,68	1475,36
871,85	1551,54
872,02	1592,50
872,19	1501,98
872,36	1463,89
872,53	1532,09
872,70	1529,42
872,87	1481,30
873,04	1464,50
873,21	1450,58
873,38	1447,91
873,55	1527,99
873,72	1502,59
873,89	1502,19
874,06	1448,12
874,23	1463,68
874,40	1469,01
874,57	1480,48
874,74	1580,01
874,91	1469,62
875,08	1487,03
875,25	1539,66
875,42	1536,59
875,59	1523,89
875,76	1528,60
875,93	1503,00
876,10	1577,55
876,27	1462,04
876,44	1593,73
876,61	1517,34
876,78	1519,39
876,95	1531,88
877,12	1492,56
877,29	1506,90
877,46	1513,45
877,62	1517,34
877,79	1482,11
877,96	1525,94
878,13	1488,87
878,30	1484,16
878,47	1532,29
878,64	1532,70
878,81	1514,27
878,98	1494,40
879,15	1566,49
879,32	1505,26
879,49	1548,67
879,66	1557,89
879,83	1488,67
880,00	1572,84
880,17	1478,84
880,34	1519,59
880,51	1485,80
880,67	1571,20
880,84	1426,82
881,01	1507,10
881,18	1576,53
881,35	1502,19
881,52	1576,32
881,69	1510,17
881,86	1578,37
882,03	1516,52
882,20	1555,43
882,37	1516,11
882,54	1559,53
882,70	1520,00
882,87	1475,15
883,04	1556,05
883,21	1512,02
883,38	1474,74
883,55	1489,90
883,72	1502,19
883,89	1476,18
884,06	1469,83
884,23	1485,60
884,39	1469,01
884,56	1530,65
884,73	1545,60
884,90	1520,62
885,07	1538,43
885,24	1505,26
885,41	1591,48
885,58	1497,68
885,74	1494,20
885,91	1527,17
886,08	1516,11
886,25	1496,86
886,42	1507,30
886,59	1525,12
886,76	1459,18
886,93	1442,18
887,09	1556,66
887,26	1652,71
887,43	1522,26
887,60	1517,34
887,77	1539,87
887,94	1535,36
888,10	1618,10
888,27	1560,14
888,44	1524,51
888,61	1428,05
888,78	1463,27
888,95	1550,11
889,12	1463,89
889,28	1542,73
889,45	1468,80
889,62	1495,84
889,79	1501,57
889,96	1522,46
890,13	1504,44
890,29	1512,63
890,46	1583,08
890,63	1530,24
890,80	1513,65
890,97	1496,45
891,13	1458,36
891,30	1525,33
891,47	1582,88
891,64	1471,88
891,81	1478,84
891,98	1489,90
892,14	1524,30
892,31	1473,72
892,48	1508,53
892,65	1492,76
892,82	1499,93
892,98	1457,13
893,15	1527,17
893,32	1526,76
>>>>>End Processed Spectral Data<<<<<
