SpectraSuite Datei
++++++++++++++++++++++++++++++++++++
Datum: Thu Mar 09 10:37:01 CET 2017
Benutzer: Admin
Dark-Spektrum vorhanden: Nein
Referenz-Spektrum vorhanden: Nein
Zahl der probierten Teilspektren: 1
Spektrometer: USB4F05832
Integrationszeit (usec): 100000 (USB4F05832)
Spektren Durchschnitt berechnet: 10 (USB4F05832)
Boxcar Glättung: 0 (USB4F05832)
Dunkelstromkorrektur: Nein (USB4F05832)
Puls/Lampe aktiviert: Nein (USB4F05832)
Correct for Detector Non-linearity: Nein (USB4F05832)
Streulichtkorrektur: Nein (USB4F05832)
Anzahl Pixel in verarbeitetem Spektrum: 3648
>>>>>Begin Processed Spectral Data<<<<<
177,54	1347,36
177,75	1347,36
177,97	1347,36
178,19	1309,88
178,41	1334,05
178,63	1521,23
178,85	1420,27
179,07	1458,77
179,29	1456,31
179,51	1425,18
179,73	1474,74
179,95	1481,71
180,17	1454,67
180,39	1525,94
180,61	1490,51
180,83	1545,81
181,05	1423,13
181,27	1481,50
181,49	1480,68
181,71	1469,62
181,92	1596,19
182,14	1479,45
182,36	1471,88
182,58	1537,21
182,80	1458,97
183,02	1570,38
183,24	1533,11
183,46	1502,80
183,68	1452,01
183,90	1505,05
184,12	1462,25
184,34	1500,55
184,56	1487,64
184,78	1445,66
185,00	1490,72
185,21	1554,00
185,43	1458,15
185,65	1514,68
185,87	1469,42
186,09	1565,06
186,31	1493,79
186,53	1520,41
186,75	1529,42
186,97	1563,83
187,19	1567,31
187,41	1444,84
187,63	1553,79
187,84	1440,34
188,06	1531,27
188,28	1492,56
188,50	1516,11
188,72	1554,61
188,94	1529,01
189,16	1447,50
189,38	1462,45
189,60	1525,33
189,82	1485,19
190,03	1511,20
190,25	1465,12
190,47	1545,19
190,69	1482,73
190,91	1428,87
191,13	1496,86
191,35	1563,01
191,57	1459,38
191,79	1491,95
192,01	1527,78
192,22	1549,29
192,44	1467,78
192,66	1514,27
192,88	1519,18
193,10	1482,52
193,32	1479,66
193,54	1544,37
193,76	1580,42
193,98	1454,67
194,19	1517,14
194,41	1492,97
194,63	1456,92
194,85	1483,96
195,07	1540,28
195,29	1441,77
195,51	1516,52
195,73	1467,98
195,94	1478,43
196,16	1504,85
196,38	1581,85
196,60	1492,15
196,82	1471,06
197,04	1477,20
197,26	1459,79
197,48	1472,49
197,69	1508,74
197,91	1449,96
198,13	1456,31
198,35	1511,40
198,57	1479,66
198,79	1538,43
199,01	1509,35
199,22	1510,58
199,44	1552,36
199,66	1481,09
199,88	1489,28
200,10	1529,01
200,32	1514,88
200,54	1532,70
200,75	1597,21
200,97	1465,12
201,19	1548,67
201,41	1549,08
201,63	1471,67
201,85	1460,41
202,06	1495,22
202,28	1484,78
202,50	1508,53
202,72	1425,18
202,94	1438,70
203,16	1484,37
203,38	1489,69
203,59	1492,97
203,81	1535,77
204,03	1413,51
204,25	1496,66
204,47	1564,65
204,69	1530,45
204,90	1460,41
205,12	1512,02
205,34	1496,25
205,56	1488,26
205,78	1475,97
206,00	1577,14
206,21	1546,83
206,43	1505,05
206,65	1510,38
206,87	1455,49
207,09	1520,62
207,30	1467,98
207,52	1538,43
207,74	1531,88
207,96	1484,37
208,18	1516,11
208,40	1471,26
208,61	1485,39
208,83	1498,09
209,05	1439,93
209,27	1427,43
209,49	1534,13
209,70	1553,38
209,92	1523,07
210,14	1429,89
210,36	1464,50
210,58	1515,91
210,79	1520,82
211,01	1452,83
211,23	1525,33
211,45	1550,52
211,67	1512,02
211,88	1440,54
212,10	1530,24
212,32	1463,27
212,54	1493,17
212,76	1494,20
212,97	1454,06
213,19	1429,07
213,41	1536,80
213,63	1471,88
213,85	1494,81
214,06	1454,26
214,28	1571,41
214,50	1460,41
214,72	1525,74
214,94	1510,99
215,15	1477,00
215,37	1448,53
215,59	1468,60
215,81	1512,63
216,02	1487,03
216,24	1559,32
216,46	1468,19
216,68	1473,72
216,90	1509,35
217,11	1544,58
217,33	1472,90
217,55	1541,30
217,77	1509,56
217,98	1544,58
218,20	1516,73
218,42	1538,84
218,64	1501,16
218,85	1557,89
219,07	1504,44
219,29	1478,22
219,51	1534,95
219,73	1496,25
219,94	1479,04
220,16	1547,45
220,38	1510,38
220,60	1496,04
220,81	1432,14
221,03	1421,90
221,25	1549,08
221,47	1418,01
221,68	1469,62
221,90	1510,79
222,12	1488,05
222,34	1482,93
222,55	1510,17
222,77	1572,43
222,99	1479,45
223,21	1510,79
223,42	1550,72
223,64	1512,63
223,86	1485,39
224,08	1520,82
224,29	1550,31
224,51	1488,67
224,73	1519,18
224,94	1499,73
225,16	1472,08
225,38	1495,22
225,60	1505,87
225,81	1480,07
226,03	1460,61
226,25	1433,58
226,47	1506,90
226,68	1522,46
226,90	1524,51
227,12	1526,15
227,33	1519,18
227,55	1471,47
227,77	1440,34
227,99	1557,89
228,20	1505,05
228,42	1508,33
228,64	1524,10
228,86	1488,26
229,07	1485,60
229,29	1465,94
229,51	1410,85
229,72	1560,76
229,94	1500,75
230,16	1514,06
230,38	1456,31
230,59	1464,50
230,81	1569,97
231,03	1505,05
231,24	1473,72
231,46	1488,26
231,68	1490,92
231,89	1512,02
232,11	1477,40
232,33	1521,23
232,55	1506,28
232,76	1536,80
232,98	1500,34
233,20	1454,67
233,41	1452,83
233,63	1471,06
233,85	1505,05
234,06	1486,01
234,28	1507,71
234,50	1451,60
234,71	1513,04
234,93	1559,73
235,15	1505,46
235,37	1431,94
235,58	1507,51
235,80	1453,24
236,02	1439,11
236,23	1521,44
236,45	1467,37
236,67	1528,60
236,88	1506,49
237,10	1521,64
237,32	1544,78
237,53	1522,05
237,75	1481,30
237,97	1435,22
238,18	1484,78
238,40	1505,26
238,62	1489,90
238,83	1490,10
239,05	1465,53
239,27	1493,79
239,48	1446,28
239,70	1480,68
239,92	1524,92
240,13	1550,11
240,35	1497,07
240,57	1500,34
240,78	1521,85
241,00	1443,41
241,22	1492,97
241,43	1568,54
241,65	1505,67
241,87	1567,31
242,08	1605,61
242,30	1463,89
242,52	1470,65
242,73	1547,04
242,95	1463,48
243,16	1526,35
243,38	1574,27
243,60	1517,34
243,81	1510,79
244,03	1560,35
244,25	1444,43
244,46	1464,71
244,68	1465,12
244,90	1500,75
245,11	1463,89
245,33	1472,90
245,55	1516,11
245,76	1494,61
245,98	1448,53
246,19	1577,35
246,41	1563,62
246,63	1529,42
246,84	1545,81
247,06	1523,28
247,28	1525,12
247,49	1507,10
247,71	1477,00
247,92	1510,79
248,14	1553,18
248,36	1537,00
248,57	1554,00
248,79	1538,64
249,01	1502,19
249,22	1516,11
249,44	1517,95
249,65	1471,67
249,87	1502,39
250,09	1510,58
250,30	1499,73
250,52	1504,85
250,73	1539,87
250,95	1476,79
251,17	1504,44
251,38	1489,49
251,60	1468,60
251,81	1552,77
252,03	1565,47
252,25	1463,27
252,46	1458,77
252,68	1563,42
252,89	1527,58
253,11	1488,26
253,33	1514,47
253,54	1454,67
253,76	1505,67
253,97	1532,29
254,19	1528,40
254,41	1432,35
254,62	1557,89
254,84	1522,87
255,05	1508,53
255,27	1521,64
255,49	1543,76
255,70	1537,21
255,92	1473,92
256,13	1462,45
256,35	1534,34
256,56	1532,70
256,78	1551,54
257,00	1507,92
257,21	1488,26
257,43	1473,31
257,64	1495,84
257,86	1539,05
258,08	1523,28
258,29	1561,17
258,51	1478,02
258,72	1536,80
258,94	1533,72
259,15	1502,59
259,37	1513,86
259,59	1429,48
259,80	1523,69
260,02	1479,45
260,23	1486,01
260,45	1450,37
260,66	1506,90
260,88	1512,63
261,09	1496,04
261,31	1482,11
261,53	1544,99
261,74	1546,83
261,96	1451,60
262,17	1446,07
262,39	1494,40
262,60	1496,04
262,82	1500,96
263,03	1487,64
263,25	1526,97
263,46	1487,03
263,68	1506,08
263,90	1495,84
264,11	1451,60
264,33	1532,70
264,54	1524,71
264,76	1499,93
264,97	1564,44
265,19	1458,15
265,40	1530,04
265,62	1490,31
265,83	1545,60
266,05	1517,95
266,26	1491,95
266,48	1571,00
266,70	1552,57
266,91	1449,14
267,13	1522,46
267,34	1467,98
267,56	1528,40
267,77	1492,97
267,99	1481,71
268,20	1568,33
268,42	1504,23
268,63	1459,38
268,85	1629,77
269,06	1547,24
269,28	1533,72
269,49	1499,52
269,71	1507,71
269,92	1474,13
270,14	1462,04
270,35	1473,31
270,57	1532,09
270,78	1485,80
271,00	1511,61
271,21	1585,54
271,43	1464,91
271,64	1470,85
271,86	1567,72
272,07	1443,20
272,29	1583,90
272,50	1477,40
272,72	1547,24
272,93	1541,51
273,15	1551,54
273,36	1560,55
273,58	1501,16
273,79	1510,99
274,01	1512,42
274,22	1482,11
274,44	1510,58
274,65	1494,20
274,87	1547,65
275,08	1531,06
275,30	1529,01
275,51	1591,89
275,73	1587,18
275,94	1473,92
276,16	1480,27
276,37	1499,11
276,59	1514,06
276,80	1502,80
277,02	1526,97
277,23	1466,14
277,45	1528,19
277,66	1417,60
277,88	1516,32
278,09	1571,00
278,30	1540,07
278,52	1469,21
278,73	1603,76
278,95	1494,40
279,16	1558,50
279,38	1512,83
279,59	1494,20
279,81	1471,06
280,02	1505,87
280,24	1476,18
280,45	1523,48
280,67	1568,33
280,88	1538,43
281,09	1443,82
281,31	1468,39
281,52	1519,80
281,74	1617,28
281,95	1490,10
282,17	1509,76
282,38	1537,00
282,60	1517,14
282,81	1558,91
283,02	1489,69
283,24	1462,66
283,45	1553,38
283,67	1456,72
283,88	1546,83
284,10	1502,39
284,31	1544,78
284,53	1483,14
284,74	1507,71
284,95	1527,78
285,17	1515,70
285,38	1485,19
285,60	1478,84
285,81	1488,67
286,03	1513,86
286,24	1539,25
286,45	1527,78
286,67	1507,92
286,88	1508,74
287,10	1531,06
287,31	1463,68
287,53	1508,74
287,74	1538,02
287,95	1461,02
288,17	1539,25
288,38	1536,18
288,60	1465,53
288,81	1482,32
289,02	1449,76
289,24	1579,39
289,45	1494,20
289,67	1549,90
289,88	1521,23
290,10	1508,12
290,31	1517,54
290,52	1512,02
290,74	1518,57
290,95	1533,31
291,17	1538,23
291,38	1474,13
291,59	1478,63
291,81	1474,33
292,02	1506,90
292,24	1518,36
292,45	1548,88
292,66	1514,47
292,88	1553,18
293,09	1506,08
293,31	1535,98
293,52	1474,33
293,73	1471,88
293,95	1525,94
294,16	1522,26
294,37	1520,21
294,59	1548,06
294,80	1569,97
295,02	1504,23
295,23	1458,56
295,44	1544,78
295,66	1491,33
295,87	1555,84
296,09	1465,32
296,30	1522,26
296,51	1462,66
296,73	1465,32
296,94	1487,03
297,15	1498,91
297,37	1460,20
297,58	1506,28
297,79	1508,74
298,01	1520,41
298,22	1543,14
298,44	1471,26
298,65	1501,16
298,86	1534,13
299,08	1468,60
299,29	1480,89
299,50	1467,37
299,72	1463,07
299,93	1518,16
300,14	1503,00
300,36	1461,23
300,57	1441,77
300,79	1494,81
301,00	1536,39
301,21	1436,24
301,43	1509,97
301,64	1503,21
301,85	1498,70
302,07	1563,42
302,28	1467,16
302,49	1575,50
302,71	1489,08
302,92	1559,73
303,13	1552,97
303,35	1507,71
303,56	1543,96
303,77	1448,32
303,99	1523,07
304,20	1484,37
304,41	1475,97
304,63	1478,22
304,84	1545,60
305,05	1554,41
305,27	1545,19
305,48	1534,13
305,69	1476,18
305,91	1547,85
306,12	1516,32
306,33	1511,20
306,55	1525,12
306,76	1498,29
306,97	1502,39
307,19	1496,04
307,40	1533,72
307,61	1554,82
307,82	1505,46
308,04	1552,77
308,25	1544,17
308,46	1512,22
308,68	1520,00
308,89	1571,61
309,10	1502,19
309,32	1486,01
309,53	1471,67
309,74	1525,74
309,96	1503,62
310,17	1480,07
310,38	1501,98
310,59	1534,54
310,81	1512,63
311,02	1508,94
311,23	1534,54
311,45	1519,59
311,66	1516,73
311,87	1505,87
312,09	1549,90
312,30	1487,23
312,51	1544,37
312,72	1524,51
312,94	1544,58
313,15	1488,87
313,36	1548,06
313,58	1468,19
313,79	1580,01
314,00	1502,80
314,21	1436,45
314,43	1511,40
314,64	1516,32
314,85	1478,02
315,06	1482,73
315,28	1562,60
315,49	1536,59
315,70	1495,63
315,92	1549,08
316,13	1585,74
316,34	1538,43
316,55	1534,75
316,77	1487,64
316,98	1576,12
317,19	1484,37
317,40	1443,00
317,62	1458,15
317,83	1547,65
318,04	1540,07
318,25	1490,10
318,47	1503,21
318,68	1488,26
318,89	1569,56
319,11	1499,11
319,32	1514,47
319,53	1552,36
319,74	1537,21
319,96	1534,95
320,17	1517,95
320,38	1463,68
320,59	1559,73
320,81	1543,35
321,02	1530,24
321,23	1510,58
321,44	1557,89
321,65	1492,76
321,87	1523,07
322,08	1600,90
322,29	1486,21
322,50	1471,88
322,72	1508,33
322,93	1503,41
323,14	1486,21
323,35	1498,70
323,57	1540,48
323,78	1526,97
323,99	1521,03
324,20	1559,32
324,41	1481,50
324,63	1527,38
324,84	1507,71
325,05	1506,90
325,26	1526,56
325,48	1502,39
325,69	1513,45
325,90	1520,82
326,11	1504,64
326,32	1497,27
326,54	1552,97
326,75	1510,79
326,96	1520,41
327,17	1520,41
327,39	1557,69
327,60	1525,53
327,81	1491,74
328,02	1497,07
328,23	1507,30
328,45	1519,18
328,66	1472,69
328,87	1535,57
329,08	1554,00
329,29	1515,50
329,51	1489,90
329,72	1480,48
329,93	1507,51
330,14	1480,27
330,35	1500,14
330,56	1489,49
330,78	1503,00
330,99	1517,34
331,20	1528,81
331,41	1528,81
331,62	1499,73
331,84	1514,68
332,05	1507,71
332,26	1515,29
332,47	1522,87
332,68	1462,04
332,90	1479,66
333,11	1456,72
333,32	1600,69
333,53	1507,71
333,74	1438,29
333,95	1556,46
334,17	1515,91
334,38	1510,99
334,59	1482,52
334,80	1480,48
335,01	1576,32
335,22	1525,12
335,44	1515,29
335,65	1465,12
335,86	1548,88
336,07	1495,22
336,28	1481,30
336,49	1480,07
336,71	1438,70
336,92	1562,40
337,13	1500,14
337,34	1502,19
337,55	1602,95
337,76	1506,08
337,97	1513,45
338,19	1501,57
338,40	1484,78
338,61	1520,00
338,82	1500,14
339,03	1507,10
339,24	1453,24
339,45	1472,08
339,67	1525,53
339,88	1513,45
340,09	1506,08
340,30	1497,47
340,51	1583,08
340,72	1527,78
340,93	1419,45
341,15	1510,58
341,36	1556,05
341,57	1472,28
341,78	1480,68
341,99	1533,93
342,20	1542,12
342,41	1507,92
342,62	1594,96
342,84	1439,93
343,05	1547,24
343,26	1470,44
343,47	1562,19
343,68	1447,30
343,89	1515,09
344,10	1505,87
344,31	1490,92
344,53	1430,30
344,74	1510,58
344,95	1464,09
345,16	1480,07
345,37	1527,38
345,58	1508,12
345,79	1462,86
346,00	1443,61
346,21	1442,79
346,42	1467,16
346,64	1491,33
346,85	1551,54
347,06	1498,29
347,27	1458,56
347,48	1537,82
347,69	1541,51
347,90	1503,82
348,11	1539,46
348,32	1468,80
348,53	1509,56
348,75	1455,49
348,96	1495,02
349,17	1463,07
349,38	1475,56
349,59	1511,20
349,80	1458,15
350,01	1552,97
350,22	1558,09
350,43	1477,40
350,64	1520,21
350,85	1556,87
351,06	1457,33
351,28	1507,30
351,49	1468,39
351,70	1486,62
351,91	1449,35
352,12	1490,51
352,33	1512,42
352,54	1463,07
352,75	1476,38
352,96	1476,79
353,17	1523,89
353,38	1528,40
353,59	1544,78
353,80	1582,06
354,01	1537,00
354,22	1488,26
354,44	1475,36
354,65	1566,29
354,86	1475,15
355,07	1438,49
355,28	1458,77
355,49	1503,00
355,70	1468,39
355,91	1521,23
356,12	1453,24
356,33	1455,49
356,54	1501,78
356,75	1500,96
356,96	1490,10
357,17	1551,34
357,38	1509,97
357,59	1490,31
357,80	1536,39
358,01	1494,81
358,22	1521,64
358,43	1512,63
358,64	1508,33
358,85	1451,40
359,07	1540,48
359,28	1490,92
359,49	1505,26
359,70	1453,65
359,91	1508,12
360,12	1443,00
360,33	1562,80
360,54	1470,85
360,75	1458,77
360,96	1481,50
361,17	1448,73
361,38	1451,60
361,59	1562,60
361,80	1464,09
362,01	1524,92
362,22	1496,25
362,43	1462,04
362,64	1491,54
362,85	1508,74
363,06	1590,86
363,27	1533,52
363,48	1526,15
363,69	1584,51
363,90	1480,89
364,11	1502,80
364,32	1480,07
364,53	1514,47
364,74	1513,65
364,95	1526,15
365,16	1497,47
365,37	1582,47
365,58	1458,36
365,79	1486,42
366,00	1526,97
366,21	1467,78
366,42	1549,29
366,63	1548,26
366,84	1484,16
367,05	1487,23
367,26	1515,70
367,47	1543,35
367,68	1501,98
367,89	1502,39
368,10	1481,09
368,31	1458,77
368,52	1532,90
368,73	1535,57
368,94	1452,83
369,15	1471,88
369,36	1469,21
369,57	1477,81
369,78	1455,49
369,99	1480,89
370,20	1508,53
370,40	1457,54
370,61	1435,63
370,82	1496,86
371,03	1505,26
371,24	1530,86
371,45	1479,45
371,66	1424,36
371,87	1496,25
372,08	1523,69
372,29	1516,93
372,50	1532,09
372,71	1500,55
372,92	1535,36
373,13	1441,36
373,34	1482,73
373,55	1478,22
373,76	1540,28
373,97	1478,22
374,18	1483,75
374,39	1508,33
374,60	1559,32
374,81	1477,40
375,01	1472,90
375,22	1520,21
375,43	1450,78
375,64	1453,85
375,85	1438,70
376,06	1456,92
376,27	1499,52
376,48	1505,87
376,69	1531,06
376,90	1482,11
377,11	1503,62
377,32	1480,89
377,53	1514,27
377,74	1509,35
377,94	1463,89
378,15	1503,82
378,36	1543,96
378,57	1466,14
378,78	1583,69
378,99	1444,64
379,20	1574,07
379,41	1496,86
379,62	1467,16
379,83	1429,07
380,04	1502,80
380,25	1498,50
380,45	1490,31
380,66	1533,72
380,87	1509,76
381,08	1494,61
381,29	1452,83
381,50	1520,21
381,71	1498,50
381,92	1456,31
382,13	1448,94
382,34	1490,92
382,55	1471,67
382,75	1503,82
382,96	1531,88
383,17	1437,47
383,38	1545,40
383,59	1541,92
383,80	1446,48
384,01	1465,12
384,22	1561,17
384,43	1525,33
384,63	1500,75
384,84	1485,60
385,05	1515,29
385,26	1488,87
385,47	1510,79
385,68	1486,42
385,89	1542,12
386,10	1478,63
386,30	1489,69
386,51	1454,06
386,72	1454,47
386,93	1448,94
387,14	1483,34
387,35	1488,87
387,56	1536,80
387,77	1454,26
387,97	1467,78
388,18	1466,55
388,39	1475,56
388,60	1483,14
388,81	1522,46
389,02	1517,34
389,23	1501,57
389,43	1468,39
389,64	1495,63
389,85	1479,45
390,06	1528,60
390,27	1466,14
390,48	1539,25
390,69	1464,30
390,89	1484,98
391,10	1476,38
391,31	1476,59
391,52	1498,09
391,73	1523,07
391,94	1481,50
392,14	1471,67
392,35	1453,65
392,56	1465,32
392,77	1484,98
392,98	1461,43
393,19	1531,27
393,39	1540,48
393,60	1476,79
393,81	1513,65
394,02	1523,69
394,23	1421,70
394,44	1435,22
394,64	1487,85
394,85	1496,25
395,06	1486,01
395,27	1495,84
395,48	1525,33
395,69	1523,89
395,89	1509,97
396,10	1485,60
396,31	1574,68
396,52	1436,65
396,73	1500,55
396,93	1474,13
397,14	1525,94
397,35	1524,92
397,56	1501,98
397,77	1471,47
397,97	1491,74
398,18	1526,35
398,39	1531,68
398,60	1502,59
398,81	1455,08
399,01	1484,37
399,22	1494,40
399,43	1568,33
399,64	1547,85
399,85	1511,20
400,05	1459,79
400,26	1428,87
400,47	1460,41
400,68	1467,16
400,89	1605,61
401,09	1463,48
401,30	1494,81
401,51	1518,16
401,72	1487,64
401,93	1601,51
402,13	1480,07
402,34	1516,93
402,55	1495,84
402,76	1482,52
402,96	1480,89
403,17	1491,74
403,38	1533,72
403,59	1506,69
403,80	1509,76
404,00	1527,38
404,21	1506,08
404,42	1458,77
404,63	1474,74
404,83	1495,22
405,04	1518,36
405,25	1557,28
405,46	1568,54
405,66	1448,73
405,87	1491,74
406,08	1465,32
406,29	1540,07
406,49	1448,53
406,70	1537,82
406,91	1430,71
407,12	1481,50
407,32	1541,92
407,53	1520,00
407,74	1515,09
407,95	1563,01
408,15	1483,34
408,36	1458,15
408,57	1518,36
408,78	1510,99
408,98	1508,74
409,19	1523,48
409,40	1471,26
409,61	1451,60
409,81	1464,09
410,02	1482,93
410,23	1500,34
410,44	1511,61
410,64	1446,48
410,85	1494,40
411,06	1482,93
411,26	1563,83
411,47	1480,68
411,68	1527,99
411,89	1480,07
412,09	1506,69
412,30	1507,71
412,51	1506,28
412,72	1496,45
412,92	1480,89
413,13	1493,38
413,34	1485,39
413,54	1467,57
413,75	1498,91
413,96	1464,91
414,17	1478,22
414,37	1525,12
414,58	1563,83
414,79	1482,32
414,99	1512,22
415,20	1489,08
415,41	1439,11
415,61	1482,52
415,82	1510,17
416,03	1507,92
416,24	1483,14
416,44	1524,10
416,65	1515,29
416,86	1529,63
417,06	1456,52
417,27	1507,71
417,48	1508,12
417,68	1444,84
417,89	1523,28
418,10	1483,14
418,30	1527,17
418,51	1541,71
418,72	1495,22
418,92	1479,04
419,13	1517,75
419,34	1467,16
419,55	1515,70
419,75	1942,29
419,96	1493,17
420,17	1560,35
420,37	1493,17
420,58	1526,35
420,79	1486,62
420,99	1479,86
421,20	1548,26
421,41	1480,68
421,61	1500,34
421,82	1475,56
422,03	1525,12
422,23	1469,21
422,44	1494,61
422,65	1536,18
422,85	1456,72
423,06	1513,86
423,26	1508,94
423,47	1533,52
423,68	1540,89
423,88	1516,11
424,09	1490,51
424,30	1505,26
424,50	1447,71
424,71	1473,72
424,92	1524,92
425,12	1563,42
425,33	1539,25
425,54	1468,60
425,74	1487,23
425,95	1512,02
426,15	1458,97
426,36	1457,33
426,57	1521,03
426,77	1538,23
426,98	1444,02
427,19	1467,98
427,39	1455,49
427,60	1559,32
427,81	1501,78
428,01	1517,34
428,22	1487,03
428,42	1483,75
428,63	1471,67
428,84	1450,17
429,04	1472,49
429,25	1479,66
429,45	1419,04
429,66	1550,11
429,87	1473,51
430,07	1584,31
430,28	1512,02
430,49	1523,69
430,69	1502,59
430,90	1486,42
431,10	1464,50
431,31	1548,06
431,52	1520,62
431,72	1497,07
431,93	1512,63
432,13	1542,73
432,34	1503,00
432,55	1475,77
432,75	1494,20
432,96	1524,92
433,16	1520,62
433,37	1501,78
433,58	1447,91
433,78	1506,08
433,99	1462,86
434,19	1449,35
434,40	1483,96
434,60	1464,71
434,81	1456,52
435,02	1444,23
435,22	1465,94
435,43	1519,80
435,63	1490,92
435,84	1496,86
436,05	1549,70
436,25	1480,48
436,46	1545,60
436,66	1508,74
436,87	1522,66
437,07	1447,30
437,28	1506,28
437,48	1471,67
437,69	1442,18
437,90	1516,11
438,10	1483,14
438,31	1542,53
438,51	1491,33
438,72	1507,30
438,92	1469,62
439,13	1508,33
439,34	1511,20
439,54	1529,42
439,75	1474,95
439,95	1495,84
440,16	1477,81
440,36	1568,54
440,57	1538,23
440,77	1541,51
440,98	1471,26
441,18	1476,79
441,39	1504,64
441,60	1443,61
441,80	1482,52
442,01	1485,39
442,21	1493,38
442,42	1482,73
442,62	1484,98
442,83	1433,37
443,03	1495,63
443,24	1514,68
443,44	1517,54
443,65	1454,06
443,85	1501,57
444,06	1481,91
444,26	1527,58
444,47	1454,88
444,67	1465,73
444,88	1510,58
445,09	1520,21
445,29	1477,81
445,50	1555,64
445,70	1448,53
445,91	1478,22
446,11	1436,85
446,32	1506,90
446,52	1516,11
446,73	1485,80
446,93	1471,67
447,14	1496,86
447,34	1468,19
447,55	1436,65
447,75	1480,27
447,96	1509,76
448,16	1529,42
448,37	1479,86
448,57	1482,52
448,78	1513,04
448,98	1498,50
449,19	1515,09
449,39	1505,46
449,60	1473,31
449,80	1481,91
450,01	1464,09
450,21	1472,90
450,42	1523,07
450,62	1482,93
450,83	1470,03
451,03	1504,03
451,23	1467,78
451,44	1518,36
451,64	1466,55
451,85	1524,51
452,05	1491,33
452,26	1506,08
452,46	1490,92
452,67	1517,54
452,87	1450,99
453,08	1507,30
453,28	1484,98
453,49	1481,71
453,69	1530,86
453,90	1504,23
454,10	1540,89
454,31	1501,16
454,51	1505,67
454,71	1501,16
454,92	1496,25
455,12	1428,25
455,33	1477,81
455,53	1544,58
455,74	1467,37
455,94	1507,10
456,15	1532,70
456,35	1544,78
456,55	1463,27
456,76	1487,03
456,96	1483,34
457,17	1394,87
457,37	1532,70
457,58	1523,89
457,78	1467,16
457,99	1490,51
458,19	1504,44
458,39	1481,91
458,60	1500,14
458,80	1443,61
459,01	1483,75
459,21	1469,01
459,42	1498,70
459,62	1531,06
459,82	1482,93
460,03	1471,88
460,23	1526,56
460,44	1493,99
460,64	1475,97
460,85	1498,50
461,05	1457,95
461,25	1452,62
461,46	1462,45
461,66	1484,98
461,87	1489,08
462,07	1559,32
462,27	1530,04
462,48	1516,32
462,68	1462,66
462,89	1435,01
463,09	1885,77
463,29	1515,29
463,50	1506,28
463,70	1452,83
463,91	1504,85
464,11	1508,53
464,31	1516,52
464,52	1542,12
464,72	1585,54
464,93	1423,34
465,13	1530,86
465,33	1495,22
465,54	1465,94
465,74	1562,19
465,95	1462,25
466,15	1439,72
466,35	1437,06
466,56	1492,35
466,76	1515,09
466,96	1477,40
467,17	1532,50
467,37	1526,97
467,58	1520,82
467,78	1490,10
467,98	1476,18
468,19	1469,21
468,39	1519,18
468,59	1524,51
468,80	1547,45
469,00	1458,36
469,21	1467,57
469,41	1481,71
469,61	1521,23
469,82	1490,10
470,02	1543,76
470,22	1455,29
470,43	1499,11
470,63	1471,47
470,83	1420,88
471,04	1436,85
471,24	1478,22
471,45	1543,76
471,65	1577,96
471,85	1514,47
472,06	1495,84
472,26	1521,64
472,46	1485,19
472,67	1557,69
472,87	1475,56
473,07	1509,35
473,28	1482,93
473,48	1523,28
473,68	1568,13
473,89	1472,49
474,09	1509,15
474,29	1454,88
474,50	1521,03
474,70	1440,95
474,90	1585,13
475,11	1495,43
475,31	1531,47
475,51	1519,59
475,72	1516,52
475,92	1468,60
476,12	1472,90
476,33	1593,73
476,53	1504,03
476,73	1434,60
476,93	1474,54
477,14	1490,51
477,34	1527,78
477,54	1523,89
477,75	1454,06
477,95	1480,68
478,15	1541,30
478,36	1520,82
478,56	1456,52
478,76	1498,09
478,97	1483,75
479,17	1451,81
479,37	1470,03
479,57	1500,14
479,78	1499,32
479,98	1488,67
480,18	1512,42
480,39	1499,93
480,59	1505,67
480,79	1481,30
480,99	1476,18
481,20	1492,97
481,40	1579,19
481,60	1488,46
481,81	1546,22
482,01	1507,92
482,21	1476,18
482,41	1480,89
482,62	1513,86
482,82	1477,00
483,02	1542,53
483,23	1438,08
483,43	1543,76
483,63	1503,82
483,83	1482,32
484,04	1586,77
484,24	1498,50
484,44	1487,23
484,64	1506,49
484,85	1500,75
485,05	1488,26
485,25	1512,63
485,45	1462,04
485,66	1498,91
485,86	1454,06
486,06	1483,14
486,26	1493,38
486,47	1472,08
486,67	1468,39
486,87	1512,02
487,07	1514,68
487,28	1481,09
487,48	1515,09
487,68	1484,37
487,88	1477,61
488,09	1497,27
488,29	1531,47
488,49	1527,17
488,69	1494,40
488,90	1517,14
489,10	1502,80
489,30	1488,26
489,50	1492,76
489,71	1550,31
489,91	1488,05
490,11	1513,86
490,31	1513,65
490,52	1510,58
490,72	1490,92
490,92	1559,32
491,12	1486,21
491,32	1498,29
491,53	1512,22
491,73	1489,49
491,93	1455,08
492,13	1492,97
492,33	1491,54
492,54	1517,75
492,74	1535,36
492,94	1510,17
493,14	1512,83
493,35	1485,60
493,55	1475,97
493,75	1501,57
493,95	1530,65
494,15	1492,56
494,36	1520,82
494,56	1488,46
494,76	1474,33
494,96	1501,78
495,16	1502,19
495,37	1574,27
495,57	1436,04
495,77	1526,35
495,97	1509,97
496,17	1454,88
496,37	1530,65
496,58	1528,81
496,78	1495,22
496,98	1442,38
497,18	1562,60
497,38	1535,57
497,59	1600,49
497,79	1462,45
497,99	1551,34
498,19	1491,33
498,39	1592,30
498,59	1473,10
498,80	1524,51
499,00	1503,41
499,20	1496,86
499,40	1432,55
499,60	1524,51
499,80	1528,19
500,01	1469,21
500,21	1495,84
500,41	1525,94
500,61	1536,18
500,81	1509,97
501,01	1522,26
501,22	1475,15
501,42	1466,96
501,62	1496,04
501,82	1534,54
502,02	1504,64
502,22	1474,33
502,42	1527,17
502,63	1557,28
502,83	1540,28
503,03	1508,74
503,23	1464,71
503,43	1484,37
503,63	1571,20
503,83	1578,57
504,04	1464,09
504,24	1484,37
504,44	1493,79
504,64	1448,32
504,84	1577,96
505,04	1479,45
505,24	1473,92
505,44	1483,96
505,65	1537,41
505,85	1586,77
506,05	1493,99
506,25	1471,47
506,45	1524,51
506,65	1452,83
506,85	1445,87
507,05	1520,41
507,26	1527,58
507,46	1545,19
507,66	1452,83
507,86	1449,14
508,06	1501,16
508,26	1456,92
508,46	1511,61
508,66	1500,34
508,86	1540,07
509,06	1507,30
509,27	1509,76
509,47	1503,21
509,67	1446,48
509,87	1479,45
510,07	1529,63
510,27	1487,44
510,47	1548,26
510,67	1558,91
510,87	1528,19
511,07	1475,77
511,28	1514,27
511,48	1530,65
511,68	1471,67
511,88	1458,56
512,08	1477,20
512,28	1475,15
512,48	1532,90
512,68	1463,48
512,88	1474,95
513,08	1554,20
513,28	1588,81
513,48	1546,42
513,68	1524,71
513,89	1517,54
514,09	1534,54
514,29	1468,39
514,49	1492,56
514,69	1507,71
514,89	1520,21
515,09	1491,13
515,29	1530,24
515,49	1485,19
515,69	1541,30
515,89	1537,41
516,09	1485,80
516,29	1430,30
516,49	1446,69
516,69	1510,58
516,89	1451,81
517,09	1485,19
517,29	1523,28
517,50	1435,01
517,70	1443,00
517,90	1495,02
518,10	1492,76
518,30	1478,84
518,50	1522,66
518,70	1502,80
518,90	1486,42
519,10	1506,28
519,30	1454,67
519,50	1466,14
519,70	1509,56
519,90	1542,94
520,10	1525,12
520,30	1516,32
520,50	1444,84
520,70	1466,96
520,90	1577,55
521,10	1486,42
521,30	1486,21
521,50	1560,35
521,70	1541,30
521,90	1537,00
522,10	1533,11
522,30	1516,52
522,50	1473,92
522,70	1519,18
522,90	1471,88
523,10	1524,51
523,30	1509,56
523,50	1554,41
523,70	1512,63
523,90	1463,27
524,10	1495,63
524,30	1483,55
524,50	1513,04
524,70	1535,36
524,90	1487,64
525,10	1521,85
525,30	1490,72
525,50	1489,69
525,70	1438,08
525,90	1508,74
526,10	1534,54
526,30	1482,52
526,50	1524,92
526,70	1498,29
526,90	1509,76
527,10	1505,26
527,30	1493,38
527,50	1542,94
527,70	1500,14
527,90	1519,18
528,10	1536,59
528,30	1495,63
528,50	1517,54
528,70	1496,45
528,90	1504,44
529,10	1521,44
529,30	1465,32
529,50	1539,46
529,70	1519,80
529,90	1518,57
530,10	1525,53
530,29	1568,13
530,49	1531,88
530,69	1499,73
530,89	1486,83
531,09	1480,89
531,29	1551,75
531,49	1460,20
531,69	1552,16
531,89	1486,42
532,09	1522,87
532,29	1546,63
532,49	1481,09
532,69	1479,45
532,89	1459,79
533,09	1503,41
533,29	1463,89
533,49	1474,33
533,68	1483,55
533,88	1500,14
534,08	1471,06
534,28	1467,16
534,48	1505,05
534,68	1447,91
534,88	1516,11
535,08	1488,05
535,28	1551,75
535,48	1521,23
535,68	1539,66
535,88	1534,95
536,08	1488,87
536,27	1488,46
536,47	1521,23
536,67	1533,31
536,87	1499,93
537,07	1507,92
537,27	1567,92
537,47	1494,40
537,67	1469,01
537,87	1465,12
538,07	1505,67
538,27	1548,88
538,46	1552,16
538,66	1453,65
538,86	1467,57
539,06	1479,45
539,26	1481,09
539,46	1498,70
539,66	1475,97
539,86	1477,40
540,06	1464,09
540,25	1550,52
540,45	1464,30
540,65	1499,52
540,85	1508,74
541,05	1539,05
541,25	1518,36
541,45	1498,50
541,65	1530,04
541,85	1533,52
542,04	1528,40
542,24	1534,13
542,44	1535,36
542,64	1512,22
542,84	1512,83
543,04	1449,96
543,24	1538,43
543,43	1487,23
543,63	1585,54
543,83	1516,73
544,03	1489,69
544,23	1523,69
544,43	1510,38
544,63	1523,89
544,82	1521,23
545,02	1502,19
545,22	1565,88
545,42	1543,14
545,62	1504,23
545,82	1463,07
546,02	1471,06
546,21	1516,73
546,41	1506,49
546,61	1486,42
546,81	1484,98
547,01	1581,85
547,21	1516,32
547,40	1516,93
547,60	1574,68
547,80	1509,56
548,00	1450,99
548,20	1481,30
548,40	1523,89
548,59	1468,19
548,79	1567,92
548,99	1548,26
549,19	1514,88
549,39	1511,20
549,59	1508,33
549,78	1565,06
549,98	1503,82
550,18	1519,18
550,38	1542,53
550,58	1553,59
550,77	1535,36
550,97	1503,21
551,17	1538,43
551,37	1555,43
551,57	1515,09
551,76	1535,57
551,96	1502,80
552,16	1576,73
552,36	1513,04
552,56	1552,97
552,75	1512,02
552,95	1483,75
553,15	1570,18
553,35	1604,38
553,55	1482,52
553,74	1541,30
553,94	1497,47
554,14	1464,91
554,34	1529,63
554,54	1549,70
554,73	1442,59
554,93	1517,34
555,13	1534,34
555,33	1499,11
555,53	1465,12
555,72	1547,24
555,92	1624,45
556,12	1517,34
556,32	1511,81
556,51	1560,55
556,71	1514,06
556,91	1548,26
557,11	1526,15
557,30	1552,97
557,50	1551,75
557,70	1511,61
557,90	1506,69
558,10	1511,20
558,29	1530,65
558,49	1562,19
558,69	1569,97
558,89	1524,51
559,08	1570,38
559,28	1501,57
559,48	1490,72
559,68	1565,88
559,87	1591,89
560,07	1517,95
560,27	1550,52
560,47	1548,26
560,66	1498,09
560,86	1527,17
561,06	1566,70
561,25	1479,04
561,45	1541,30
561,65	1544,58
561,85	1533,11
562,04	1553,79
562,24	1550,11
562,44	1531,68
562,64	1617,69
562,83	1676,47
563,03	1587,18
563,23	1549,70
563,42	1548,26
563,62	1506,49
563,82	1538,43
564,02	1518,98
564,21	1535,57
564,41	1521,23
564,61	1541,30
564,80	1535,57
565,00	1605,40
565,20	1547,65
565,40	1636,33
565,59	1527,17
565,79	1589,22
565,99	1594,75
566,18	1572,23
566,38	1601,31
566,58	1549,29
566,78	1558,09
566,97	1599,26
567,17	1632,23
567,37	1526,97
567,56	1602,74
567,76	1620,76
567,96	1524,92
568,15	1568,74
568,35	1581,85
568,55	1626,29
568,74	1565,47
568,94	1599,67
569,14	1545,19
569,33	1551,95
569,53	1588,61
569,73	1575,09
569,92	1657,63
570,12	1584,92
570,32	1551,95
570,52	1570,18
570,71	1583,28
570,91	1661,31
571,11	1588,61
571,30	1611,96
571,50	1601,10
571,70	1655,58
571,89	1658,45
572,09	1634,48
572,28	1562,60
572,48	1550,11
572,68	1541,71
572,87	1632,44
573,07	1618,10
573,27	1676,06
573,46	1663,16
573,66	1592,30
573,86	1619,53
574,05	1608,68
574,25	1591,48
574,45	1619,94
574,64	1693,47
574,84	1776,41
575,04	1657,01
575,23	1671,55
575,43	1626,50
575,62	1669,30
575,82	1709,44
576,02	1606,63
576,21	1643,29
576,41	1638,78
576,61	1712,31
576,80	1680,97
577,00	1609,70
577,19	1641,04
577,39	1659,67
577,59	1707,19
577,78	1691,62
577,98	1736,68
578,18	1682,41
578,37	1721,52
578,57	1729,71
578,76	1737,09
578,96	1684,04
579,16	1716,40
579,35	1727,26
579,55	1670,53
579,74	1795,86
579,94	1669,71
580,14	1821,26
580,33	1756,34
580,53	1734,83
580,72	1767,81
580,92	1766,37
581,12	1711,69
581,31	1783,17
581,51	1809,18
581,70	1779,68
581,90	1778,66
582,10	1810,81
582,29	1823,10
582,49	1815,73
582,68	1790,33
582,88	1789,72
583,07	1969,94
583,27	1854,03
583,47	1931,03
583,66	1848,91
583,86	1846,65
584,05	1863,24
584,25	1847,06
584,44	1916,49
584,64	1947,62
584,84	1850,34
585,03	1909,73
585,23	1875,73
585,42	1899,90
585,62	1896,42
585,81	1886,59
586,01	1990,22
586,20	1980,80
586,40	1989,60
586,60	2037,11
586,79	2001,68
586,99	2046,33
587,18	2029,13
587,38	1959,70
587,57	1971,37
587,77	2046,13
587,96	2113,91
588,16	2060,05
588,35	2086,47
588,55	2163,68
588,75	2171,67
588,94	2169,82
589,14	2135,21
589,33	2124,36
589,53	2207,92
589,72	2146,07
589,92	2196,86
590,11	2214,88
590,31	2284,10
590,50	2302,12
590,70	2335,71
590,89	2320,96
591,09	2347,38
591,28	2393,05
591,48	2307,65
591,67	2406,77
591,87	2352,09
592,06	2417,42
592,26	2409,64
592,45	2456,95
592,65	2537,23
592,84	2455,10
593,04	2478,66
593,23	2563,65
593,43	2555,46
593,62	2633,48
593,82	2635,53
594,01	2609,52
594,21	2727,28
594,40	2698,61
594,60	2664,20
594,79	2767,42
594,99	2824,15
595,18	2787,49
595,38	2875,76
595,57	2879,03
595,77	2937,81
595,96	3000,68
596,16	2995,15
596,35	2979,59
596,55	3067,45
596,74	3104,72
596,94	3104,52
597,13	3189,51
597,33	3226,37
597,52	3226,78
597,72	3301,12
597,91	3470,69
598,11	3396,15
598,30	3425,64
598,50	3481,34
598,69	3475,61
598,88	3497,73
599,08	3518,62
599,27	3612,21
599,47	3580,26
599,66	3701,50
599,86	3722,39
600,05	3768,26
600,25	3831,95
600,44	3897,90
600,64	4000,50
600,83	4064,60
601,02	4128,09
601,22	4200,18
601,41	4264,69
601,61	4273,70
601,80	4348,66
602,00	4410,71
602,19	4372,62
602,38	4472,97
602,58	4489,15
602,77	4521,71
602,97	4596,05
603,16	4703,37
603,36	4700,70
603,55	4837,51
603,74	4806,58
603,94	4883,18
604,13	5028,58
604,33	5056,03
604,52	5067,08
604,72	5169,07
604,91	5212,49
605,10	5319,19
605,30	5332,91
605,49	5560,44
605,69	5631,50
605,88	5671,64
606,07	5747,83
606,27	5859,44
606,46	5833,23
606,66	5894,87
606,85	5899,79
607,04	6011,40
607,24	6040,48
607,43	6230,74
607,63	6153,74
607,82	6290,95
608,01	6415,06
608,21	6426,32
608,40	6644,43
608,60	6703,62
608,79	6825,27
608,98	6852,91
609,18	7100,31
609,37	7205,57
609,57	7273,57
609,76	7420,81
609,95	7503,14
610,15	7725,55
610,34	7759,55
610,53	7778,39
610,73	7917,86
610,92	8111,80
611,11	8127,57
611,31	8298,57
611,50	8372,71
611,70	8551,91
611,89	8641,20
612,08	8842,31
612,28	8949,83
612,47	9234,29
612,66	9355,12
612,86	9692,01
613,05	9804,45
613,24	10086,45
613,44	10307,63
613,63	10468,81
613,82	10804,06
614,02	11146,07
614,21	11166,55
614,41	11455,52
614,60	11885,18
614,79	11993,52
614,99	12209,17
615,18	12469,06
615,37	12575,55
615,57	12933,95
615,76	12916,95
615,95	13129,32
616,15	13280,87
616,34	13901,61
616,53	14118,90
616,73	14554,30
616,92	14856,78
617,11	15199,82
617,30	15581,97
617,50	16061,81
617,69	16627,87
617,88	17138,22
618,08	17280,35
618,27	17942,25
618,46	18299,22
618,66	18575,49
618,85	19030,14
619,04	19374,60
619,24	19946,81
619,43	20350,87
619,62	20606,05
619,82	20892,35
620,01	21417,25
620,20	21916,95
620,39	22110,89
620,59	22829,12
620,78	23335,99
620,97	24045,82
621,17	24525,86
621,36	25324,16
621,55	25593,26
621,74	26375,58
621,94	26772,28
622,13	27687,92
622,32	28119,43
622,52	28682,83
622,71	29378,73
622,90	29816,38
623,09	30133,81
623,29	30675,50
623,48	31062,77
623,67	31538,31
623,86	31613,88
624,06	31928,45
624,25	32150,65
624,44	32579,91
624,64	32950,79
624,83	33327,41
625,02	33613,31
625,21	34419,60
625,41	35019,24
625,60	35714,73
625,79	36048,35
625,98	36735,03
626,18	37926,95
626,37	37979,58
626,56	38501,40
626,75	39483,81
626,95	39589,28
627,14	40179,10
627,33	41061,77
627,52	41365,28
627,72	41680,26
627,91	41991,76
628,10	42524,23
628,29	42726,57
628,49	42830,60
628,68	43183,06
628,87	43787,42
629,06	44855,02
629,25	44755,08
629,45	45311,51
629,64	45990,01
629,83	46938,83
630,02	47290,88
630,22	48092,86
630,41	48868,02
630,60	49572,72
630,79	49863,74
630,98	50492,46
631,18	50640,33
631,37	51262,09
631,56	51839,41
631,75	52330,72
631,94	52524,66
632,14	52317,41
632,33	52222,38
632,52	52320,89
632,71	51865,83
632,90	51835,11
633,10	51358,35
633,29	50657,94
633,48	50437,99
633,67	50028,19
633,86	49618,80
634,06	49095,34
634,25	48313,63
634,44	48034,08
634,63	46930,43
634,82	46707,82
635,02	45199,90
635,21	44895,57
635,40	43979,72
635,59	42824,26
635,78	41798,84
635,97	40766,25
636,17	38887,04
636,36	38274,90
636,55	36628,74
636,74	35659,03
636,93	33886,92
637,12	32860,48
637,32	31689,86
637,51	30012,37
637,70	28804,27
637,89	27798,92
638,08	26510,55
638,27	25598,38
638,47	24351,37
638,66	23344,39
638,85	22130,15
639,04	21549,75
639,23	20187,65
639,42	19481,51
639,62	18655,15
639,81	17891,46
640,00	17089,28
640,19	16260,46
640,38	15587,91
640,57	14962,05
640,76	14288,68
640,95	13703,37
641,15	12933,95
641,34	12451,65
641,53	11864,29
641,72	11399,40
641,91	10868,16
642,10	10373,99
642,29	10064,33
642,49	9649,41
642,68	9208,49
642,87	9035,43
643,06	8650,62
643,25	8371,28
643,44	7990,15
643,63	7789,04
643,82	7577,48
644,01	7334,39
644,21	7090,89
644,40	6957,36
644,59	6650,37
644,78	6485,51
644,97	6384,34
645,16	6176,67
645,35	5938,49
645,54	5801,28
645,73	5628,43
645,92	5491,63
646,12	5338,85
646,31	5175,22
646,50	5036,36
646,69	4931,51
646,88	4753,75
647,07	4709,71
647,26	4582,94
647,45	4473,38
647,64	4372,41
647,83	4292,13
648,02	4238,89
648,22	4116,42
648,41	3988,62
648,60	3914,08
648,79	3852,84
648,98	3809,22
649,17	3655,83
649,36	3529,67
649,55	3527,22
649,74	3487,49
649,93	3352,93
650,12	3336,55
650,31	3307,06
650,50	3196,67
650,69	3189,10
650,88	3142,61
651,08	3000,48
651,27	3012,97
651,46	2977,75
651,65	2843,40
651,84	2787,29
652,03	2756,57
652,22	2690,42
652,41	2693,08
652,60	2714,38
652,79	2676,90
652,98	2548,70
653,17	2502,62
653,36	2480,70
653,55	2432,99
653,74	2430,94
653,93	2343,70
654,12	2281,64
654,31	2273,65
654,50	2314,00
654,69	2311,34
654,88	2215,70
655,07	2152,62
655,26	2144,02
655,45	2109,82
655,64	2080,33
655,83	2087,08
656,02	2088,11
656,21	2025,03
656,40	1972,60
656,59	2054,93
656,78	1984,28
656,97	1999,64
657,17	1983,87
657,36	1930,21
657,55	2041,01
657,74	1940,86
657,93	1916,90
658,12	1908,50
658,31	1877,17
658,50	1831,70
658,69	1820,03
658,87	1871,23
659,06	1831,09
659,25	1836,00
659,44	1767,19
659,63	1849,52
659,82	1826,99
660,01	1813,07
660,20	1769,24
660,39	1805,28
660,58	1748,15
660,77	1762,69
660,96	1765,14
661,15	1751,01
661,34	1745,69
661,53	1726,44
661,72	1763,71
661,91	1713,33
662,10	1695,10
662,29	1633,46
662,48	1689,37
662,67	1659,06
662,86	1663,77
663,05	1677,70
663,24	1714,35
663,43	1644,93
663,62	1735,24
663,81	1638,58
664,00	1745,07
664,19	1638,58
664,38	1662,95
664,57	1621,99
664,76	1645,54
664,94	1622,61
665,13	1596,60
665,32	1593,93
665,51	1621,99
665,70	1565,26
665,89	1637,97
666,08	1611,96
666,27	1561,78
666,46	1616,46
666,65	1645,34
666,84	1526,35
667,03	1583,90
667,22	1569,77
667,41	1641,86
667,60	1588,81
667,78	1610,32
667,97	1601,51
668,16	1613,59
668,35	1554,20
668,54	1588,20
668,73	1573,04
668,92	1590,45
669,11	1547,04
669,30	1580,83
669,49	1549,90
669,68	1625,27
669,86	1543,14
670,05	1549,49
670,24	1509,35
670,43	1564,85
670,62	1599,67
670,81	1556,05
671,00	1525,74
671,19	1606,63
671,38	1551,75
671,57	1521,85
671,75	1519,18
671,94	1576,32
672,13	1585,74
672,32	1513,04
672,51	1508,33
672,70	1602,74
672,89	1512,02
673,08	1497,47
673,26	1520,41
673,45	1523,07
673,64	1519,80
673,83	1504,44
674,02	1494,81
674,21	1600,08
674,40	1504,23
674,59	1566,08
674,77	1554,41
674,96	1568,33
675,15	1591,89
675,34	1511,40
675,53	1615,23
675,72	1528,40
675,91	1545,60
676,09	1600,49
676,28	1631,21
676,47	1531,27
676,66	1467,78
676,85	1580,21
677,04	1512,83
677,22	1564,44
677,41	1524,10
677,60	1563,83
677,79	1487,64
677,98	1511,20
678,17	1482,11
678,36	1508,53
678,54	1461,02
678,73	1560,14
678,92	1463,68
679,11	1554,00
679,30	1485,60
679,48	1522,87
679,67	1513,86
679,86	1520,82
680,05	1565,26
680,24	1491,74
680,43	1506,90
680,61	1471,47
680,80	1445,05
680,99	1488,05
681,18	1466,14
681,37	1556,05
681,55	1596,60
681,74	1565,06
681,93	1505,46
682,12	1460,20
682,31	1481,71
682,49	1495,22
682,68	1547,45
682,87	1486,01
683,06	1482,52
683,25	1522,46
683,43	1532,70
683,62	1459,38
683,81	1538,23
684,00	1603,35
684,19	1496,66
684,37	1485,60
684,56	1473,72
684,75	1571,82
684,94	1499,11
685,12	1580,62
685,31	1496,04
685,50	1507,71
685,69	1496,86
685,88	1493,58
686,06	1508,74
686,25	1506,90
686,44	1507,51
686,63	1519,80
686,81	1543,96
687,00	1501,16
687,19	1513,65
687,38	1517,14
687,56	1468,80
687,75	1546,83
687,94	1497,47
688,13	1477,61
688,31	1493,99
688,50	1485,60
688,69	1503,62
688,88	1540,69
689,06	1526,97
689,25	1518,16
689,44	1434,40
689,63	1502,39
689,81	1438,08
690,00	1472,49
690,19	1497,88
690,38	1511,40
690,56	1470,65
690,75	1565,47
690,94	1519,39
691,13	1447,91
691,31	1504,44
691,50	1467,98
691,69	1529,83
691,87	1463,68
692,06	1503,41
692,25	1486,83
692,44	1500,34
692,62	1461,64
692,81	1601,51
693,00	1502,59
693,18	1490,10
693,37	1546,83
693,56	1454,47
693,75	1448,73
693,93	1525,94
694,12	1556,66
694,31	1522,26
694,49	1444,84
694,68	1497,47
694,87	1500,75
695,05	1483,55
695,24	1458,56
695,43	1485,60
695,62	1454,06
695,80	1463,27
695,99	1530,86
696,18	1468,39
696,36	1552,77
696,55	1468,80
696,74	1442,79
696,92	1553,79
697,11	1523,07
697,30	1552,36
697,48	1485,19
697,67	1472,28
697,86	1480,48
698,04	1430,51
698,23	1473,92
698,42	1521,23
698,60	1500,34
698,79	1494,20
698,98	1510,79
699,16	1465,12
699,35	1473,31
699,54	1527,58
699,72	1492,76
699,91	1586,56
700,10	1479,86
700,28	1501,16
700,47	1616,26
700,66	1505,87
700,84	1476,79
701,03	1452,42
701,21	1510,79
701,40	1483,34
701,59	1525,53
701,77	1466,55
701,96	1486,42
702,15	1486,21
702,33	1488,26
702,52	1467,98
702,71	1557,69
702,89	1484,78
703,08	1535,57
703,26	1516,93
703,45	1549,90
703,64	1521,64
703,82	1550,93
704,01	1466,96
704,20	1526,97
704,38	1509,56
704,57	1473,31
704,75	1456,52
704,94	1475,56
705,13	1482,93
705,31	1545,40
705,50	1481,30
705,68	1519,39
705,87	1536,39
706,06	1517,95
706,24	1473,92
706,43	1458,56
706,61	1524,30
706,80	1456,92
706,99	1503,00
707,17	1581,24
707,36	1544,37
707,54	1506,08
707,73	1515,09
707,92	1494,20
708,10	1458,56
708,29	1477,00
708,47	1482,73
708,66	1529,22
708,84	1474,95
709,03	1497,27
709,22	1500,14
709,40	1524,92
709,59	1492,76
709,77	1564,65
709,96	1530,65
710,14	1482,11
710,33	1529,42
710,52	1526,35
710,70	1536,39
710,89	1492,56
711,07	1481,71
711,26	1524,71
711,44	1554,82
711,63	1498,50
711,81	1522,87
712,00	1453,85
712,19	1511,81
712,37	1556,66
712,56	1516,52
712,74	1480,48
712,93	1515,29
713,11	1480,48
713,30	1491,54
713,48	1510,99
713,67	1481,91
713,85	1480,68
714,04	1520,82
714,22	1529,01
714,41	1534,54
714,59	1490,10
714,78	1518,98
714,97	1509,76
715,15	1496,66
715,34	1529,42
715,52	1480,27
715,71	1512,22
715,89	1472,49
716,08	1515,09
716,26	1433,17
716,45	1464,09
716,63	1465,12
716,82	1502,19
717,00	1442,38
717,19	1514,47
717,37	1501,37
717,56	1456,92
717,74	1478,84
717,93	1535,36
718,11	1520,00
718,30	1438,90
718,48	1485,39
718,67	1580,21
718,85	1474,33
719,04	1474,74
719,22	1457,54
719,41	1512,02
719,59	1534,54
719,78	1492,15
719,96	1469,01
720,15	1508,94
720,33	1505,26
720,52	1505,26
720,70	1447,91
720,88	1532,09
721,07	1460,20
721,25	1483,75
721,44	1464,30
721,62	1507,71
721,81	1439,93
721,99	1434,19
722,18	1465,53
722,36	1498,09
722,55	1478,02
722,73	1469,01
722,92	1499,11
723,10	1475,77
723,28	1496,66
723,47	1512,42
723,65	1554,82
723,84	1494,61
724,02	1444,43
724,21	1506,69
724,39	1451,60
724,58	1475,56
724,76	1542,73
724,94	1457,13
725,13	1515,09
725,31	1503,62
725,50	1549,29
725,68	1504,85
725,87	1470,65
726,05	1525,94
726,23	1458,77
726,42	1479,45
726,60	1487,64
726,79	1477,20
726,97	1482,52
727,16	1573,04
727,34	1484,98
727,52	1486,62
727,71	1522,26
727,89	1446,69
728,08	1443,82
728,26	1487,85
728,44	1493,38
728,63	1560,96
728,81	1496,45
729,00	1491,33
729,18	1498,91
729,36	1466,35
729,55	1503,62
729,73	1547,24
729,92	1517,54
730,10	1450,58
730,28	1445,25
730,47	1492,35
730,65	1492,97
730,84	1546,22
731,02	1432,35
731,20	1557,69
731,39	1504,23
731,57	1525,94
731,75	1520,21
731,94	1465,94
732,12	1568,74
732,31	1495,02
732,49	1463,27
732,67	1488,46
732,86	1451,81
733,04	1481,09
733,22	1441,97
733,41	1458,56
733,59	1482,93
733,78	1508,33
733,96	1523,28
734,14	1428,25
734,33	1439,11
734,51	1494,81
734,69	1501,78
734,88	1466,14
735,06	1461,02
735,24	1481,91
735,43	1536,39
735,61	1451,81
735,79	1507,10
735,98	1466,55
736,16	1545,19
736,34	1463,48
736,53	1498,50
736,71	1511,81
736,89	1500,14
737,08	1535,16
737,26	1462,86
737,44	1490,51
737,63	1497,88
737,81	1454,47
737,99	1506,08
738,18	1522,05
738,36	1554,61
738,54	1511,40
738,73	1524,51
738,91	1543,35
739,09	1511,61
739,28	1462,45
739,46	1477,61
739,64	1480,27
739,82	1550,52
740,01	1454,88
740,19	1610,93
740,37	1519,80
740,56	1511,40
740,74	1493,79
740,92	1513,65
741,11	1429,89
741,29	1481,91
741,47	1572,43
741,65	1487,23
741,84	1503,41
742,02	1565,06
742,20	1508,94
742,39	1497,88
742,57	1504,23
742,75	1448,12
742,93	1474,54
743,12	1512,83
743,30	1476,38
743,48	1470,44
743,67	1484,98
743,85	1461,23
744,03	1568,95
744,21	1482,93
744,40	1475,56
744,58	1514,68
744,76	1499,73
744,94	1474,74
745,13	1490,31
745,31	1456,52
745,49	1451,40
745,67	1455,90
745,86	1521,44
746,04	1460,82
746,22	1485,19
746,40	1455,29
746,59	1464,71
746,77	1527,17
746,95	1547,24
747,13	1491,74
747,32	1486,01
747,50	1490,31
747,68	1481,71
747,86	1455,90
748,05	1529,63
748,23	1470,24
748,41	1520,41
748,59	1455,29
748,77	1445,46
748,96	1486,42
749,14	1435,83
749,32	1590,45
749,50	1528,40
749,69	1502,39
749,87	1512,83
750,05	1482,11
750,23	1459,79
750,41	1452,01
750,60	1524,51
750,78	1454,67
750,96	1506,49
751,14	1515,70
751,32	1484,57
751,51	1479,45
751,69	1446,48
751,87	1407,98
752,05	1522,87
752,23	1511,40
752,42	1493,58
752,60	1526,97
752,78	1522,46
752,96	1479,86
753,14	1492,56
753,33	1462,04
753,51	1476,18
753,69	1467,57
753,87	1510,79
754,05	1509,15
754,23	1503,00
754,42	1460,00
754,60	1482,52
754,78	1552,97
754,96	1461,02
755,14	1447,30
755,32	1519,18
755,51	1443,61
755,69	1514,88
755,87	1473,51
756,05	1481,09
756,23	1490,51
756,41	1483,34
756,60	1511,61
756,78	1513,45
756,96	1452,83
757,14	1503,62
757,32	1448,12
757,50	1501,78
757,68	1463,89
757,87	1454,67
758,05	1482,73
758,23	1479,86
758,41	1556,05
758,59	1544,58
758,77	1567,92
758,95	1537,00
759,14	1508,74
759,32	1551,54
759,50	1471,47
759,68	1457,54
759,86	1491,33
760,04	1467,98
760,22	1489,90
760,40	1635,92
760,59	1472,08
760,77	1537,00
760,95	1468,39
761,13	1457,95
761,31	1552,16
761,49	1504,64
761,67	1542,94
761,85	1463,68
762,03	1460,41
762,22	1557,07
762,40	1485,80
762,58	1461,84
762,76	1485,60
762,94	1480,68
763,12	1490,72
763,30	1539,66
763,48	1503,41
763,66	1470,03
763,84	1461,64
764,02	1484,37
764,21	1469,62
764,39	1593,32
764,57	1466,35
764,75	1467,37
764,93	1501,37
765,11	1486,83
765,29	1503,21
765,47	1474,95
765,65	1482,32
765,83	1508,33
766,01	1506,49
766,19	1493,17
766,37	1561,99
766,56	1509,15
766,74	1467,98
766,92	1471,06
767,10	1457,95
767,28	1508,94
767,46	1503,41
767,64	1455,70
767,82	1516,73
768,00	1477,61
768,18	1462,86
768,36	1522,05
768,54	1561,58
768,72	1546,63
768,90	1442,18
769,08	1438,70
769,26	1480,27
769,44	1487,64
769,62	1501,98
769,80	1542,94
769,98	1526,35
770,16	1466,96
770,34	1478,63
770,52	1463,89
770,71	1500,14
770,89	1448,53
771,07	1569,36
771,25	1498,29
771,43	1503,82
771,61	1523,48
771,79	1496,25
771,97	1476,38
772,15	1483,96
772,33	1519,39
772,51	1567,52
772,69	1449,35
772,87	1516,73
773,05	1514,88
773,23	1504,85
773,41	1502,80
773,59	1533,93
773,77	1486,21
773,95	1525,53
774,13	1506,49
774,31	1549,90
774,49	1516,52
774,67	1480,68
774,85	1502,59
775,03	1495,63
775,21	1511,61
775,39	1460,00
775,57	1494,81
775,75	1535,36
775,93	1476,38
776,10	1469,83
776,28	1500,34
776,46	1447,09
776,64	1473,31
776,82	1463,07
777,00	2581,46
777,18	1448,12
777,36	1523,89
777,54	1456,11
777,72	1456,92
777,90	1510,79
778,08	1448,32
778,26	1461,23
778,44	1458,56
778,62	1489,08
778,80	1565,88
778,98	1526,76
779,16	1476,38
779,34	1560,14
779,52	1480,48
779,70	1541,92
779,88	1460,61
780,05	1445,66
780,23	1443,41
780,41	1487,85
780,59	1484,98
780,77	1522,66
780,95	1471,06
781,13	1518,57
781,31	1477,61
781,49	1543,14
781,67	1522,46
781,85	1472,08
782,03	1499,73
782,21	1485,80
782,39	1494,81
782,56	1533,11
782,74	1536,18
782,92	1471,88
783,10	1581,85
783,28	1464,09
783,46	1445,05
783,64	1537,41
783,82	1512,63
784,00	1522,05
784,18	1496,66
784,35	1476,38
784,53	1464,91
784,71	1463,07
784,89	1473,92
785,07	1462,04
785,25	1521,03
785,43	1523,07
785,61	1435,63
785,79	1502,80
785,96	1535,57
786,14	1467,16
786,32	1503,21
786,50	1507,92
786,68	1426,21
786,86	1498,91
787,04	1480,48
787,22	1471,47
787,39	1480,27
787,57	1477,00
787,75	1466,35
787,93	1501,98
788,11	1439,72
788,29	1501,57
788,47	1506,49
788,65	1470,03
788,82	1496,86
789,00	1478,02
789,18	1483,96
789,36	1492,56
789,54	1465,73
789,72	1478,63
789,89	1481,30
790,07	1554,82
790,25	1533,72
790,43	1508,12
790,61	1499,32
790,79	1488,67
790,96	1470,44
791,14	1546,01
791,32	1430,30
791,50	1517,34
791,68	1553,59
791,86	1483,75
792,03	1498,91
792,21	1471,26
792,39	1480,27
792,57	1452,42
792,75	1431,73
792,93	1481,91
793,10	1472,90
793,28	1483,96
793,46	1434,19
793,64	1534,34
793,82	1555,23
793,99	1511,20
794,17	1451,60
794,35	1510,99
794,53	1506,69
794,71	1424,98
794,88	1460,00
795,06	1487,64
795,24	1472,08
795,42	1489,49
795,60	1534,54
795,77	1461,84
795,95	1493,99
796,13	1475,77
796,31	1503,00
796,49	1555,84
796,66	1479,25
796,84	1445,05
797,02	1539,25
797,20	1505,05
797,37	1502,19
797,55	1464,30
797,73	1476,18
797,91	1453,85
798,08	1509,56
798,26	1513,86
798,44	1452,01
798,62	1460,00
798,80	1449,76
798,97	1478,02
799,15	1487,64
799,33	1565,06
799,51	1566,90
799,68	1486,01
799,86	1513,45
800,04	1501,37
800,22	1495,63
800,39	1490,92
800,57	1557,28
800,75	1520,62
800,93	1482,52
801,10	1494,61
801,28	1554,61
801,46	1476,18
801,63	1505,46
801,81	1522,46
801,99	1504,44
802,17	1474,13
802,34	1529,83
802,52	1447,30
802,70	1533,52
802,88	1518,16
803,05	1555,02
803,23	1472,08
803,41	1486,21
803,58	1489,08
803,76	1508,33
803,94	1541,10
804,12	1530,45
804,29	1461,23
804,47	1527,58
804,65	1496,66
804,82	1501,37
805,00	1485,19
805,18	1480,48
805,35	1470,44
805,53	1532,50
805,71	1484,98
805,89	1506,69
806,06	1492,35
806,24	1439,93
806,42	1485,60
806,59	1490,72
806,77	1536,59
806,95	1491,33
807,12	1503,62
807,30	1516,93
807,48	1446,07
807,65	1443,61
807,83	1529,22
808,01	1516,11
808,18	1503,00
808,36	1495,43
808,54	1465,32
808,71	1477,81
808,89	1499,32
809,07	1518,98
809,24	1543,96
809,42	1560,35
809,60	1459,38
809,77	1508,33
809,95	1502,39
810,13	1492,97
810,30	1482,11
810,48	1545,81
810,66	1472,28
810,83	1505,46
811,01	1497,07
811,18	1501,98
811,36	1425,39
811,54	1476,18
811,71	1507,92
811,89	1544,78
812,07	1459,79
812,24	1578,78
812,42	1460,00
812,59	1482,52
812,77	1514,47
812,95	1522,87
813,12	1507,51
813,30	1461,84
813,48	1488,46
813,65	1507,92
813,83	1508,74
814,00	1552,36
814,18	1543,76
814,36	1494,61
814,53	1505,87
814,71	1493,58
814,88	1535,57
815,06	1469,83
815,24	1534,34
815,41	1460,00
815,59	1504,64
815,76	1496,04
815,94	1530,86
816,12	1490,10
816,29	1553,38
816,47	1493,79
816,64	1585,13
816,82	1454,26
817,00	1537,82
817,17	1501,37
817,35	1584,10
817,52	1476,79
817,70	1516,52
817,87	1513,24
818,05	1479,04
818,23	1486,83
818,40	1558,30
818,58	1496,66
818,75	1479,45
818,93	1466,76
819,10	1511,81
819,28	1480,68
819,46	1518,36
819,63	1478,02
819,81	1569,77
819,98	1432,55
820,16	1542,94
820,33	1451,60
820,51	1554,20
820,68	1505,67
820,86	1516,11
821,03	1568,54
821,21	1527,99
821,39	1583,90
821,56	1486,42
821,74	1457,33
821,91	1484,98
822,09	1470,85
822,26	1470,65
822,44	1464,30
822,61	1472,08
822,79	1535,16
822,96	1487,85
823,14	1473,92
823,31	1440,95
823,49	1527,17
823,66	1499,52
823,84	1493,17
824,01	1486,62
824,19	1434,81
824,36	1526,56
824,54	1529,83
824,71	1548,67
824,89	1513,04
825,06	1555,02
825,24	1488,26
825,41	1522,66
825,59	1490,72
825,76	1521,03
825,94	1483,34
826,11	1535,36
826,29	1467,16
826,46	1490,51
826,64	1525,33
826,81	1528,19
826,99	1492,15
827,16	1478,63
827,34	1440,75
827,51	1474,95
827,69	1586,97
827,86	1514,68
828,04	1520,62
828,21	1514,68
828,39	1530,45
828,56	1467,98
828,74	1529,63
828,91	1496,66
829,09	1587,79
829,26	1483,55
829,43	1542,73
829,61	1486,62
829,78	1485,39
829,96	1527,38
830,13	1471,47
830,31	1522,66
830,48	1527,38
830,66	1477,00
830,83	1469,01
831,01	1462,66
831,18	1480,48
831,35	1508,94
831,53	1512,83
831,70	1520,62
831,88	1602,74
832,05	1534,95
832,23	1474,74
832,40	1534,95
832,57	1529,22
832,75	1464,09
832,92	1546,22
833,10	1573,45
833,27	1516,11
833,45	1507,71
833,62	1485,60
833,79	1527,58
833,97	1487,85
834,14	1527,78
834,32	1545,40
834,49	1474,74
834,66	1495,22
834,84	1454,88
835,01	1546,63
835,19	1435,22
835,36	1468,60
835,53	1594,75
835,71	1516,11
835,88	1519,80
836,06	1536,80
836,23	1568,95
836,40	1470,65
836,58	1472,90
836,75	1506,08
836,93	1495,22
837,10	1518,57
837,27	1509,35
837,45	1507,10
837,62	1461,64
837,79	1478,43
837,97	1541,92
838,14	1482,73
838,32	1483,14
838,49	1464,71
838,66	1500,14
838,84	1531,68
839,01	1536,59
839,18	1522,26
839,36	1457,54
839,53	1484,16
839,70	1535,98
839,88	1479,25
840,05	1541,71
840,23	1495,43
840,40	1459,79
840,57	1476,18
840,75	1511,20
840,92	1583,08
841,09	1534,95
841,27	1549,70
841,44	1485,19
841,61	1533,52
841,79	1511,40
841,96	1488,87
842,13	1445,25
842,31	1510,17
842,48	1510,58
842,65	1472,28
842,83	1510,17
843,00	1517,34
843,17	1483,34
843,35	1550,52
843,52	1477,00
843,69	1508,33
843,86	1473,72
844,04	1491,95
844,21	1487,44
844,38	1526,97
844,56	1493,79
844,73	1519,59
844,90	1524,10
845,08	1495,84
845,25	1493,99
845,42	1534,75
845,60	1507,10
845,77	1488,05
845,94	1474,13
846,11	1518,16
846,29	1556,87
846,46	1495,02
846,63	1483,14
846,81	1538,23
846,98	1483,96
847,15	1491,95
847,32	1499,32
847,50	1450,58
847,67	1482,32
847,84	1497,07
848,01	1517,34
848,19	1490,92
848,36	1509,15
848,53	1475,56
848,71	1535,98
848,88	1478,84
849,05	1468,39
849,22	1478,84
849,40	1488,26
849,57	1545,81
849,74	1514,47
849,91	1505,46
850,09	1451,19
850,26	1481,09
850,43	1483,75
850,60	1496,25
850,78	1504,44
850,95	1489,69
851,12	1477,00
851,29	1518,57
851,47	1551,54
851,64	1492,97
851,81	1490,31
851,98	1483,96
852,15	1558,09
852,33	1480,68
852,50	1499,11
852,67	1510,58
852,84	1493,58
853,02	1549,49
853,19	1555,02
853,36	1510,17
853,53	1441,57
853,70	1581,85
853,88	1522,87
854,05	1529,01
854,22	1481,71
854,39	1528,19
854,56	1514,06
854,74	1462,25
854,91	1524,10
855,08	1445,25
855,25	1504,44
855,42	1451,60
855,60	1507,30
855,77	1533,72
855,94	1556,46
856,11	1477,81
856,28	1506,28
856,46	1549,08
856,63	1481,50
856,80	1472,28
856,97	1539,46
857,14	1536,39
857,31	1486,62
857,49	1497,07
857,66	1517,95
857,83	1480,68
858,00	1501,37
858,17	1477,20
858,34	1512,02
858,52	1466,96
858,69	1501,37
858,86	1523,69
859,03	1480,27
859,20	1539,05
859,37	1502,19
859,55	1474,74
859,72	1520,21
859,89	1517,75
860,06	1520,21
860,23	1541,71
860,40	1455,29
860,57	1525,53
860,75	1428,66
860,92	1536,18
861,09	1534,95
861,26	1542,94
861,43	1513,45
861,60	1471,67
861,77	1464,71
861,95	1462,45
862,12	1506,08
862,29	1455,90
862,46	1520,21
862,63	1542,53
862,80	1543,55
862,97	1557,28
863,14	1467,57
863,31	1559,53
863,49	1516,52
863,66	1521,44
863,83	1529,22
864,00	1533,93
864,17	1465,53
864,34	1519,80
864,51	1446,89
864,68	1527,78
864,85	1473,92
865,02	1478,63
865,20	1527,78
865,37	1472,28
865,54	1501,98
865,71	1550,72
865,88	1471,06
866,05	1467,98
866,22	1493,17
866,39	1476,18
866,56	1477,81
866,73	1487,03
866,90	1557,28
867,07	1544,17
867,25	1475,36
867,42	1553,18
867,59	1493,17
867,76	1545,40
867,93	1484,57
868,10	1521,64
868,27	1453,85
868,44	1532,70
868,61	1498,29
868,78	1495,22
868,95	1483,34
869,12	1523,48
869,29	1542,94
869,46	1507,51
869,63	1522,87
869,80	1489,49
869,97	1539,25
870,14	1493,99
870,32	1514,47
870,49	1509,56
870,66	1543,35
870,83	1518,36
871,00	1468,80
871,17	1476,59
871,34	1512,83
871,51	1506,28
871,68	1491,13
871,85	1498,50
872,02	1577,35
872,19	1505,26
872,36	1489,49
872,53	1523,28
872,70	1523,69
872,87	1478,84
873,04	1474,95
873,21	1449,55
873,38	1475,36
873,55	1564,85
873,72	1519,80
873,89	1503,21
874,06	1443,61
874,23	1453,65
874,40	1478,02
874,57	1499,11
874,74	1558,71
874,91	1470,03
875,08	1487,64
875,25	1510,58
875,42	1530,24
875,59	1519,59
875,76	1508,33
875,93	1511,20
876,10	1551,13
876,27	1457,54
876,44	1605,81
876,61	1539,46
876,78	1500,75
876,95	1506,08
877,12	1483,34
877,29	1519,80
877,46	1518,16
877,62	1512,22
877,79	1474,95
877,96	1502,59
878,13	1476,38
878,30	1499,52
878,47	1526,56
878,64	1518,36
878,81	1514,88
878,98	1495,22
879,15	1558,09
879,32	1550,93
879,49	1531,27
879,66	1534,34
879,83	1475,77
880,00	1573,86
880,17	1481,71
880,34	1523,89
880,51	1466,76
880,67	1547,45
880,84	1438,08
881,01	1493,79
881,18	1551,34
881,35	1477,00
881,52	1585,95
881,69	1480,07
881,86	1585,33
882,03	1505,67
882,20	1525,53
882,37	1498,09
882,54	1531,06
882,70	1497,47
882,87	1481,91
883,04	1550,52
883,21	1525,33
883,38	1458,97
883,55	1509,56
883,72	1475,15
883,89	1466,76
884,06	1478,43
884,23	1467,98
884,39	1444,02
884,56	1541,51
884,73	1544,78
884,90	1497,27
885,07	1542,12
885,24	1512,42
885,41	1573,45
885,58	1495,43
885,74	1458,36
885,91	1530,65
886,08	1522,05
886,25	1494,40
886,42	1489,90
886,59	1533,52
886,76	1462,66
886,93	1447,09
887,09	1549,08
887,26	1634,48
887,43	1512,22
887,60	1511,81
887,77	1522,66
887,94	1527,17
888,10	1595,16
888,27	1561,17
888,44	1543,14
888,61	1443,00
888,78	1456,11
888,95	1530,24
889,12	1460,20
889,28	1515,91
889,45	1507,51
889,62	1494,40
889,79	1490,10
889,96	1525,53
890,13	1511,40
890,29	1486,01
890,46	1584,10
890,63	1528,19
890,80	1512,63
890,97	1488,87
891,13	1450,58
891,30	1524,30
891,47	1623,63
891,64	1481,91
891,81	1466,76
891,98	1493,58
892,14	1528,19
892,31	1482,32
892,48	1483,55
892,65	1477,81
892,82	1491,13
892,98	1436,65
893,15	1510,99
893,32	1522,87
>>>>>End Processed Spectral Data<<<<<
