SpectraSuite Datei
++++++++++++++++++++++++++++++++++++
Datum: Thu Mar 09 09:46:17 CET 2017
Benutzer: Admin
Dark-Spektrum vorhanden: Ja
Referenz-Spektrum vorhanden: Nein
Zahl der probierten Teilspektren: 1
Spektrometer: USB4F05832
Integrationszeit (usec): 100000 (USB4F05832)
Spektren Durchschnitt berechnet: 10 (USB4F05832)
Boxcar Glttung: 0 (USB4F05832)
Dunkelstromkorrektur: Nein (USB4F05832)
Puls/Lampe aktiviert: Nein (USB4F05832)
Correct for Detector Non-linearity: Nein (USB4F05832)
Streulichtkorrektur: Nein (USB4F05832)
Anzahl Pixel in verarbeitetem Spektrum: 3648
>>>>>Begin Processed Spectral Data<<<<<
177,54	-49,36
177,75	-49,36
177,97	-49,36
178,19	36,66
178,41	-70,04
178,63	-6,55
178,85	-8,81
179,07	-101,78
179,29	10,85
179,51	5,94
179,73	14,34
179,95	45,06
180,17	25,60
180,39	58,57
180,61	10,65
180,83	32,15
181,05	-12,70
181,27	83,97
181,49	47,92
181,71	60,82
181,92	5,73
182,14	75,77
182,36	53,25
182,58	74,96
182,80	7,17
183,02	22,94
183,24	8,60
183,46	-10,85
183,68	87,45
183,90	94,21
184,12	53,66
184,34	-24,37
184,56	48,54
184,78	51,81
185,00	-7,17
185,21	93,80
185,43	133,32
185,65	30,11
185,87	78,23
186,09	57,75
186,31	43,01
186,53	130,25
186,75	73,93
186,97	-2,25
187,19	26,01
187,41	15,36
187,63	-40,96
187,84	-26,21
188,06	109,98
188,28	44,44
188,50	47,51
188,72	-9,22
188,94	47,72
189,16	40,34
189,38	42,80
189,60	7,17
189,82	92,36
190,03	50,99
190,25	-24,17
190,47	57,55
190,69	98,92
190,91	70,04
191,13	26,83
191,35	0,82
191,57	69,43
191,79	13,93
192,01	18,84
192,22	31,33
192,44	5,53
192,66	126,56
192,88	72,29
193,10	83,97
193,32	55,50
193,54	-61,64
193,76	-1,84
193,98	9,01
194,19	3,48
194,41	23,96
194,63	6,55
194,85	82,33
195,07	55,91
195,29	42,39
195,51	34,41
195,73	51,20
195,94	52,84
196,16	18,64
196,38	61,44
196,60	3,48
196,82	59,19
197,04	-4,71
197,26	78,03
197,48	19,66
197,69	21,09
197,91	21,30
198,13	53,04
198,35	28,88
198,57	72,70
198,79	6,96
199,01	9,63
199,22	-30,72
199,44	43,62
199,66	17,82
199,88	102,81
200,10	-33,79
200,32	76,59
200,54	38,30
200,75	39,94
200,97	31,95
201,19	-12,29
201,41	84,99
201,63	29,29
201,85	-5,53
202,06	87,86
202,28	19,25
202,50	26,01
202,72	-11,26
202,94	49,56
203,16	57,96
203,38	46,08
203,59	51,20
203,81	35,84
204,03	89,29
204,25	-16,59
204,47	4,30
204,69	13,93
204,90	17,20
205,12	52,84
205,34	35,23
205,56	89,50
205,78	6,14
206,00	21,91
206,21	22,73
206,43	-7,99
206,65	60,21
206,87	77,21
207,09	65,94
207,30	121,85
207,52	28,88
207,74	-17,20
207,96	65,53
208,18	36,86
208,40	31,74
208,61	44,03
208,83	11,88
209,05	66,56
209,27	5,94
209,49	49,36
209,70	16,79
209,92	101,58
210,14	20,07
210,36	18,43
210,58	23,76
210,79	48,74
211,01	136,60
211,23	-2,05
211,45	96,05
211,67	8,40
211,88	47,92
212,10	92,77
212,32	-7,99
212,54	3,89
212,76	27,85
212,97	35,84
213,19	76,39
213,41	121,65
213,63	79,46
213,85	10,24
214,06	50,99
214,28	-2,87
214,50	56,32
214,72	114,69
214,94	43,42
215,15	84,99
215,37	30,51
215,59	125,95
215,81	52,84
216,02	64,72
216,24	39,32
216,46	42,60
216,68	87,24
216,90	-12,29
217,11	35,23
217,33	49,97
217,55	79,67
217,77	63,08
217,98	61,85
218,20	-2,25
218,42	108,54
218,64	45,46
218,85	58,37
219,07	78,85
219,29	56,32
219,51	18,02
219,73	74,34
219,94	-12,49
220,16	31,13
220,38	35,02
220,60	55,50
220,81	31,74
221,03	44,65
221,25	106,49
221,47	66,76
221,68	-24,37
221,90	41,98
222,12	53,86
222,34	70,04
222,55	72,70
222,77	124,52
222,99	47,72
223,21	56,32
223,42	62,46
223,64	99,53
223,86	42,80
224,08	61,44
224,29	61,44
224,51	31,33
224,73	-3,69
224,94	-37,89
225,16	35,43
225,38	14,13
225,60	87,45
225,81	67,79
226,03	5,32
226,25	60,42
226,47	32,77
226,68	36,66
226,90	9,83
227,12	18,23
227,33	34,20
227,55	95,84
227,77	4,51
227,99	112,02
228,20	90,93
228,42	32,56
228,64	26,83
228,86	42,19
229,07	13,52
229,29	-7,99
229,51	17,61
229,72	68,61
229,94	-31,74
230,16	74,34
230,38	-37,48
230,59	38,09
230,81	0,82
231,03	18,43
231,24	56,52
231,46	49,77
231,68	36,86
231,89	28,26
232,11	48,54
232,33	1,02
232,55	7,58
232,76	62,87
232,98	51,61
233,20	86,22
233,41	57,75
233,63	133,12
233,85	70,25
234,06	79,87
234,28	37,89
234,50	73,73
234,71	61,23
234,93	-6,96
235,15	46,90
235,37	73,52
235,58	21,09
235,80	53,86
236,02	2,87
236,23	16,38
236,45	17,00
236,67	39,73
236,88	58,57
237,10	29,90
237,32	101,37
237,53	132,91
237,75	40,96
237,97	28,26
238,18	48,33
238,40	33,59
238,62	56,11
238,83	45,87
239,05	64,92
239,27	31,54
239,48	1,84
239,70	17,00
239,92	21,71
240,13	42,39
240,35	89,91
240,57	115,30
240,78	67,58
241,00	15,15
241,22	74,96
241,43	27,24
241,65	43,21
241,87	42,80
242,08	18,43
242,30	116,32
242,52	138,03
242,73	113,87
242,95	34,00
243,16	60,01
243,38	138,03
243,60	34,00
243,81	100,76
244,03	30,72
244,25	-24,37
244,46	87,24
244,68	-13,52
244,90	-6,14
245,11	113,66
245,33	62,87
245,55	118,37
245,76	69,02
245,98	111,20
246,19	17,82
246,41	39,12
246,63	70,04
246,84	49,36
247,06	-32,15
247,28	32,77
247,49	55,09
247,71	18,23
247,92	68,81
248,14	95,23
248,36	91,34
248,57	74,14
248,79	70,65
249,01	41,37
249,22	72,91
249,44	8,60
249,65	9,63
249,87	9,83
250,09	85,81
250,30	-17,41
250,52	68,61
250,73	38,30
250,95	42,19
251,17	49,77
251,38	79,05
251,60	99,33
251,81	92,36
252,03	56,73
252,25	75,77
252,46	72,70
252,68	72,09
252,89	-43,62
253,11	77,21
253,33	77,00
253,54	33,18
253,76	140,49
253,97	49,36
254,19	67,99
254,41	68,81
254,62	51,20
254,84	43,21
255,05	52,22
255,27	81,30
255,49	68,81
255,70	38,91
255,92	13,93
256,13	17,00
256,35	-10,65
256,56	92,77
256,78	41,16
257,00	71,06
257,21	9,63
257,43	33,59
257,64	32,15
257,86	81,10
258,08	75,16
258,29	103,83
258,51	72,29
258,72	0,41
258,94	25,39
259,15	47,51
259,37	28,26
259,59	-1,02
259,80	35,23
260,02	23,14
260,23	45,87
260,45	34,00
260,66	36,04
260,88	80,08
261,09	50,58
261,31	66,15
261,53	103,42
261,74	73,93
261,96	38,91
262,17	60,82
262,39	-4,51
262,60	96,25
262,82	37,89
263,03	100,96
263,25	86,83
263,46	-29,90
263,68	49,56
263,90	82,74
264,11	103,63
264,33	-25,39
264,54	40,55
264,76	139,06
264,97	61,03
265,19	180,84
265,40	43,01
265,62	-7,99
265,83	122,88
266,05	1,02
266,26	2,87
266,48	32,56
266,70	-10,44
266,91	69,02
267,13	-26,83
267,34	102,19
267,56	165,07
267,77	76,59
267,99	0,20
268,20	88,27
268,42	122,06
268,63	92,16
268,85	84,38
269,06	71,68
269,28	5,73
269,49	82,12
269,71	115,71
269,92	32,77
270,14	-22,53
270,35	149,71
270,57	85,20
270,78	31,13
271,00	-10,04
271,21	122,47
271,43	27,03
271,64	60,82
271,86	46,90
272,07	22,12
272,29	52,43
272,50	-9,22
272,72	53,04
272,93	22,94
273,15	0,61
273,36	26,62
273,58	100,76
273,79	89,70
274,01	29,70
274,22	-43,01
274,44	101,58
274,65	0,82
274,87	58,57
275,08	17,20
275,30	33,79
275,51	117,55
275,73	96,25
275,94	80,08
276,16	83,15
276,37	100,76
276,59	6,96
276,80	34,61
277,02	87,45
277,23	104,86
277,45	62,26
277,66	47,51
277,88	34,41
278,09	73,52
278,30	83,35
278,52	49,77
278,73	99,74
278,95	16,79
279,16	12,90
279,38	19,87
279,59	122,67
279,81	69,63
280,02	115,10
280,24	82,33
280,45	61,44
280,67	17,82
280,88	-2,25
281,09	92,77
281,31	53,25
281,52	89,70
281,74	66,56
281,95	71,06
282,17	65,94
282,38	40,34
282,60	-19,05
282,81	69,22
283,02	4,71
283,24	109,98
283,45	86,42
283,67	37,89
283,88	70,65
284,10	64,72
284,31	53,86
284,53	132,71
284,74	63,08
284,95	37,89
285,17	17,61
285,38	27,65
285,60	47,72
285,81	36,66
286,03	66,56
286,24	95,64
286,45	152,78
286,67	65,13
286,88	82,74
287,10	81,92
287,31	96,66
287,53	81,30
287,74	181,04
287,95	86,83
288,17	30,51
288,38	26,62
288,60	107,11
288,81	123,90
289,02	58,57
289,24	76,80
289,45	81,51
289,67	92,98
289,88	41,98
290,10	119,81
290,31	58,78
290,52	78,23
290,74	77,62
290,95	33,79
291,17	124,93
291,38	78,85
291,59	146,22
291,81	48,54
292,02	48,74
292,24	51,61
292,45	78,03
292,66	35,23
292,88	61,85
293,09	63,08
293,31	95,44
293,52	35,23
293,73	28,88
293,95	134,35
294,16	-3,48
294,37	67,79
294,59	-6,76
294,80	68,81
295,02	95,64
295,23	20,48
295,44	92,77
295,66	92,77
295,87	71,68
296,09	130,05
296,30	36,25
296,51	47,72
296,73	123,29
296,94	99,53
297,15	87,86
297,37	69,63
297,58	92,57
297,79	54,27
298,01	121,44
298,22	73,52
298,44	96,46
298,65	96,05
298,86	94,41
299,08	25,80
299,29	128,41
299,50	-2,87
299,72	140,49
299,93	115,30
300,14	91,95
300,36	49,36
300,57	139,88
300,79	142,54
301,00	185,34
301,21	50,99
301,43	43,01
301,64	178,79
301,85	70,45
302,07	106,08
302,28	85,40
302,49	93,39
302,71	53,25
302,92	119,81
303,13	115,71
303,35	95,84
303,56	146,22
303,77	94,62
303,99	108,13
304,20	145,00
304,41	95,23
304,63	201,32
304,84	111,20
305,05	163,22
305,27	283,44
305,48	192,51
305,69	190,05
305,91	214,42
306,12	199,27
306,33	229,17
306,55	299,62
306,76	277,09
306,97	314,77
307,19	333,61
307,40	338,32
307,61	390,34
307,82	370,89
308,04	349,38
308,25	437,65
308,46	410,21
308,68	429,05
308,89	445,02
309,10	558,28
309,32	565,65
309,53	580,80
309,74	705,93
309,96	770,24
310,17	806,08
310,38	838,23
310,59	954,97
310,81	899,26
311,02	928,55
311,23	983,02
311,45	1082,56
311,66	1109,79
311,87	1185,16
312,09	1291,45
312,30	1323,19
312,51	1313,57
312,72	1454,47
312,94	1464,30
313,15	1469,21
313,36	1543,35
313,58	1658,04
313,79	1739,54
314,00	1722,75
314,21	1788,70
314,43	1849,93
314,64	1900,52
314,85	1918,33
315,06	1840,51
315,28	1972,19
315,49	1984,89
315,70	2171,87
315,92	2331,00
316,13	2480,29
316,34	2680,79
316,55	2737,93
316,77	2791,79
316,98	2841,97
317,19	2902,59
317,40	2849,75
317,62	2833,36
317,83	3028,95
318,04	3106,36
318,25	3306,45
318,47	3309,11
318,68	3475,61
318,89	3535,41
319,11	3433,62
319,32	3758,02
319,53	3840,35
319,74	4078,53
319,96	4073,41
320,17	4033,88
320,38	4234,79
320,59	4153,90
320,81	4089,79
321,02	4003,78
321,23	4134,23
321,44	4031,02
321,65	4113,75
321,87	4094,91
322,08	4039,62
322,29	4200,59
322,50	4198,95
322,72	4449,42
322,93	4776,27
323,14	5018,14
323,35	5090,43
323,57	5340,49
323,78	5349,09
323,99	5520,30
324,20	5551,84
324,41	5793,29
324,63	5853,30
324,84	6318,39
325,05	6610,43
325,26	7009,38
325,48	7164,82
325,69	7611,69
325,90	7701,80
326,11	7700,36
326,32	7578,92
326,54	7607,38
326,75	7424,71
326,96	7353,03
327,17	7043,78
327,39	6961,46
327,60	7099,28
327,81	7018,39
328,02	7254,11
328,23	7713,88
328,45	8206,21
328,66	8567,68
328,87	9014,34
329,08	8989,15
329,29	9165,27
329,51	9417,99
329,72	9081,51
329,93	8956,59
330,14	8758,34
330,35	8572,39
330,56	8635,26
330,78	8520,16
330,99	8775,14
331,20	8910,51
331,41	8907,84
331,62	8966,21
331,84	9392,19
332,05	9243,71
332,26	9265,83
332,47	9171,83
332,68	9204,19
332,90	9434,17
333,11	9303,92
333,32	9555,00
333,53	9417,58
333,74	9532,68
333,95	9330,34
334,17	9413,08
334,38	9401,20
334,59	9441,96
334,80	9389,32
335,01	8912,35
335,22	8963,14
335,44	8703,66
335,65	8406,91
335,86	8465,07
336,07	8119,38
336,28	8227,51
336,49	8266,22
336,71	8342,40
336,92	8693,01
337,13	8876,10
337,34	8905,80
337,55	9372,94
337,76	9395,26
337,97	9328,50
338,19	9676,86
338,40	9711,47
338,61	9950,26
338,82	9931,01
339,03	10363,34
339,24	10408,19
339,45	10277,94
339,67	10469,01
339,88	10438,09
340,09	10300,87
340,30	10037,30
340,51	9844,79
340,72	10170,62
340,93	10095,05
341,15	10313,37
341,36	10339,17
341,57	10554,62
341,78	10713,13
341,99	10541,10
342,20	10664,39
342,41	10721,32
342,62	10375,83
342,84	10064,33
343,05	9826,56
343,26	9430,28
343,47	9467,76
343,68	9125,13
343,89	9149,91
344,10	9495,82
344,31	9728,26
344,53	10145,23
344,74	10240,87
344,95	10307,84
345,16	10515,09
345,37	10386,48
345,58	10317,26
345,79	10672,37
346,00	10641,86
346,21	10846,25
346,42	10880,04
346,64	10580,42
346,85	10590,25
347,06	10518,78
347,27	10478,64
347,48	10798,53
347,69	10317,05
347,90	10563,83
348,11	10630,19
348,32	10445,87
348,53	10561,78
348,75	10982,44
348,96	10802,83
349,17	11567,95
349,38	11718,07
349,59	11790,77
349,80	12319,97
350,01	12061,51
350,22	12310,34
350,43	11715,41
350,64	11957,88
350,85	11910,58
351,06	11410,05
351,28	11532,73
351,49	11289,22
351,70	11591,91
351,91	11285,54
352,12	11594,78
352,33	11263,01
352,54	12274,91
352,75	12385,50
352,96	12452,06
353,17	13132,60
353,38	12947,87
353,59	13168,03
353,80	13350,09
354,01	13276,78
354,22	13058,46
354,44	12958,93
354,65	12712,15
354,86	12697,00
355,07	12438,54
355,28	12232,52
355,49	11834,39
355,70	11428,48
355,91	11194,40
356,12	10643,70
356,33	10469,01
356,54	10132,94
356,75	9961,52
356,96	9796,46
357,17	9495,82
357,38	9417,79
357,59	8903,75
357,80	9252,31
358,01	9809,98
358,22	9875,31
358,43	10687,94
358,64	11259,12
358,85	11913,44
359,07	11999,87
359,28	12456,36
359,49	12290,07
359,70	12016,66
359,91	12071,14
360,12	11523,72
360,33	11339,19
360,54	11340,42
360,75	11379,13
360,96	11418,24
361,17	11365,00
361,38	11759,03
361,59	12364,61
361,80	12717,89
362,01	12608,11
362,22	12747,79
362,43	12921,04
362,64	12943,57
362,85	13113,35
363,06	12982,07
363,27	13358,29
363,48	13315,48
363,69	13366,27
363,90	13396,99
364,11	13866,18
364,32	13917,38
364,53	14577,03
364,74	15031,68
364,95	15641,16
365,16	15793,32
365,37	16220,12
365,58	16227,29
365,79	16446,21
366,00	16398,29
366,21	16292,00
366,42	15914,97
366,63	15774,48
366,84	15624,16
367,05	15126,09
367,26	15061,17
367,47	14675,33
367,68	14572,53
367,89	14510,88
368,10	13979,84
368,31	13517,21
368,52	14107,43
368,73	15420,59
368,94	15337,65
369,15	15091,89
369,36	15515,82
369,57	15407,28
369,78	15244,67
369,99	15634,40
370,20	15678,84
370,40	15756,87
370,61	15907,39
370,82	15858,24
371,03	15572,96
371,24	15586,07
371,45	15278,26
371,66	14711,17
371,87	14300,97
372,08	14647,28
372,29	14092,48
372,50	13281,28
372,71	13402,52
372,92	13303,61
373,13	13039,01
373,34	13059,49
373,55	13112,53
373,76	13056,82
373,97	12817,01
374,18	13413,17
374,39	13822,36
374,60	14369,37
374,81	14589,73
375,01	14565,56
375,22	15161,52
375,43	15080,42
375,64	15782,26
375,85	15285,01
376,06	15994,02
376,27	16308,59
376,48	17019,85
376,69	17004,90
376,90	17922,18
377,11	18605,59
377,32	18279,55
377,53	18710,24
377,74	18532,27
377,94	17934,27
378,15	17547,61
378,36	16513,18
378,57	16439,45
378,78	15794,75
378,99	16009,38
379,20	16004,06
379,41	16269,06
379,62	16569,09
379,83	16876,90
380,04	17002,44
380,25	16895,54
380,45	16473,25
380,66	16006,92
380,87	15359,15
381,08	14414,42
381,29	13896,90
381,50	12905,48
381,71	12351,50
381,92	12218,59
382,13	11569,59
382,34	10685,48
382,55	10756,96
382,75	10888,03
382,96	11035,48
383,17	11665,84
383,38	12520,46
383,59	13069,32
383,80	13670,40
384,01	14301,38
384,22	15209,65
384,43	15024,31
384,63	14434,70
384,84	14915,77
385,05	14518,46
385,26	14732,27
385,47	14952,02
385,68	15116,26
385,89	15107,46
386,10	15113,19
386,30	15187,53
386,51	14802,72
386,72	15238,94
386,93	14859,04
387,14	14800,06
387,35	15252,45
387,56	14974,54
387,77	14971,06
387,97	15427,96
388,18	16275,21
388,39	16511,95
388,60	17161,77
388,81	17446,03
389,02	18054,89
389,23	18521,21
389,43	18285,08
389,64	18726,83
389,85	18705,94
390,06	19145,23
390,27	19779,08
390,48	19904,82
390,69	19617,90
390,89	20204,85
391,10	19215,27
391,31	18261,33
391,52	17364,93
391,73	16404,43
391,94	14514,57
392,14	13048,22
392,35	11956,86
392,56	11423,98
392,77	11330,39
392,98	11669,74
393,19	12227,40
393,39	13406,62
393,60	14536,69
393,81	16461,57
394,02	16941,00
394,23	18404,48
394,44	18746,90
394,64	19244,56
394,85	19773,96
395,06	18087,25
395,27	17152,56
395,48	16280,74
395,69	14321,45
395,89	14057,46
396,10	13899,56
396,31	13363,20
396,52	14600,99
396,73	15748,67
396,93	17760,19
397,14	18185,55
397,35	21039,60
397,56	21582,52
397,77	23068,93
397,97	24504,77
398,18	25643,03
398,39	24841,04
398,60	25979,51
398,81	25787,82
399,01	26934,89
399,22	26319,68
399,43	26792,14
399,64	26913,79
399,85	26848,67
400,05	27224,06
400,26	27370,49
400,47	27503,81
400,68	28325,46
400,89	27811,83
401,09	29021,36
401,30	29229,84
401,51	28669,51
401,72	28387,71
401,93	28902,78
402,13	28757,58
402,34	28101,20
402,55	28290,23
402,76	28101,41
402,96	28241,69
403,17	27177,98
403,38	27734,00
403,59	26938,37
403,80	28714,98
404,00	27355,13
404,21	27121,05
404,42	28250,50
404,63	28031,98
404,83	27860,98
405,04	26190,45
405,25	26931,61
405,46	26613,35
405,66	26060,40
405,87	26712,07
406,08	26711,04
406,29	27532,69
406,49	26891,88
406,70	27044,04
406,91	26702,85
407,12	28553,19
407,32	27657,00
407,53	29144,23
407,74	29163,89
407,95	28252,96
408,15	29193,59
408,36	28913,63
408,57	28490,73
408,78	28084,21
408,98	27674,82
409,19	26413,27
409,40	27584,09
409,61	26471,43
409,81	27110,40
410,02	27743,01
410,23	28275,89
410,44	29704,35
410,64	29588,03
410,85	29528,64
411,06	30062,13
411,26	29803,88
411,47	30001,51
411,68	30302,16
411,89	28610,74
412,09	29639,84
412,30	29354,56
412,51	28453,04
412,72	28804,27
412,92	29966,49
413,13	29493,41
413,34	29135,84
413,54	29038,97
413,75	29408,63
413,96	29233,93
414,17	28605,82
414,37	29251,34
414,58	28880,86
414,79	29857,13
414,99	29052,28
415,20	29717,46
415,41	30114,77
415,61	30419,71
415,82	30091,21
416,03	28665,62
416,24	29065,80
416,44	29231,07
416,65	28863,05
416,86	29396,75
417,06	28510,59
417,27	28121,68
417,48	27882,68
417,68	28959,92
417,89	29032,82
418,10	27975,25
418,30	28781,33
418,51	28171,45
418,72	28068,85
418,92	29449,38
419,13	27761,04
419,34	28508,95
419,55	28648,42
419,75	29183,15
419,96	29257,49
420,17	30526,00
420,37	30295,81
420,58	28979,37
420,79	28767,41
420,99	29937,82
421,20	30018,72
421,41	28852,60
421,61	28819,63
421,82	27353,90
422,03	28386,28
422,23	27527,98
422,44	28574,90
422,65	28623,84
422,85	28465,74
423,06	28534,35
423,26	29205,47
423,47	29948,68
423,68	28507,11
423,88	29362,14
424,09	28658,46
424,30	28691,63
424,50	29094,47
424,71	29003,95
424,92	28732,80
425,12	28229,82
425,33	29712,55
425,54	29645,78
425,74	29344,93
425,95	28217,32
426,15	29395,11
426,36	27114,90
426,57	28713,14
426,77	27664,78
426,98	28505,06
427,19	27939,41
427,39	28657,64
427,60	27369,26
427,81	27895,18
428,01	27205,01
428,22	28578,99
428,42	25748,09
428,63	26255,16
428,84	25375,36
429,04	24059,95
429,25	23190,17
429,45	21936,41
429,66	22351,94
429,87	22626,16
430,07	22314,46
430,28	23391,69
430,49	24475,48
430,69	26606,19
430,90	27025,81
431,10	27690,18
431,31	28139,09
431,52	29707,02
431,72	29101,43
431,93	28842,77
432,13	30128,28
432,34	30681,44
432,55	29246,43
432,75	30080,16
432,96	29482,35
433,16	28994,32
433,37	29051,46
433,58	30059,27
433,78	29923,49
433,99	27998,19
434,19	30197,91
434,40	30537,06
434,60	31381,43
434,81	31504,31
435,02	31603,64
435,22	32633,77
435,43	31946,67
435,63	32066,07
435,84	33214,16
436,05	33126,10
436,25	31076,90
436,46	32730,84
436,66	32138,98
436,87	31544,25
437,07	30263,45
437,28	29722,38
437,48	29957,28
437,69	28845,64
437,90	29435,66
438,10	29720,12
438,31	29617,11
438,51	31619,41
438,72	30459,03
438,92	30820,50
439,13	30874,15
439,34	30821,93
439,54	30914,70
439,75	30825,62
439,95	30650,51
440,16	31969,82
440,36	32217,01
440,57	32268,61
440,77	33205,97
440,98	32380,23
441,18	32613,08
441,39	32974,34
441,60	34126,12
441,80	33597,75
442,01	31983,33
442,21	33915,59
442,42	32421,60
442,62	33019,20
442,83	33174,23
443,03	33521,56
443,24	33163,37
443,44	33230,55
443,65	33655,91
443,85	33236,48
444,06	33092,10
444,26	33276,01
444,47	32058,90
444,67	32748,66
444,88	31849,19
445,09	31138,14
445,29	32121,37
445,50	31756,01
445,70	31593,19
445,91	32445,97
446,11	32161,51
446,32	33265,57
446,52	33574,60
446,73	33514,60
446,93	34269,89
447,14	33837,97
447,34	34268,05
447,55	32870,51
447,75	33911,70
447,96	34558,04
448,16	33540,40
448,37	33983,58
448,57	33730,86
448,78	34411,40
448,98	34367,78
449,19	34593,06
449,39	35730,30
449,60	35114,27
449,80	36420,46
450,01	36565,05
450,21	36129,45
450,42	36261,54
450,62	35760,81
450,83	35576,49
451,03	34928,31
451,23	35058,97
451,44	34591,22
451,64	34515,85
451,85	33487,98
452,05	34018,40
452,26	33795,79
452,46	33095,38
452,67	33213,75
452,87	33191,02
453,08	33751,14
453,28	32650,15
453,49	34672,73
453,69	33403,60
453,90	33708,95
454,10	34254,53
454,31	34053,01
454,51	33874,22
454,71	34259,85
454,92	34006,52
455,12	34308,19
455,33	35167,72
455,53	35924,85
455,74	36954,16
455,94	37370,10
456,15	37869,81
456,35	39242,36
456,55	38321,59
456,76	38985,13
456,96	40308,94
457,17	37116,77
457,37	40698,05
457,58	38741,63
457,78	40008,91
457,99	39033,47
458,19	36965,63
458,39	38873,52
458,60	40294,81
458,80	39523,34
459,01	38790,17
459,21	38461,47
459,42	39983,72
459,62	38131,13
459,82	41528,10
460,03	40835,88
460,23	41150,86
460,44	41192,64
460,64	38607,28
460,85	42443,13
461,05	39994,37
461,25	40114,38
461,46	42871,56
461,66	41747,02
461,87	41003,20
462,07	41293,60
462,27	39840,77
462,48	39524,16
462,68	40668,36
462,89	40602,00
463,09	38944,17
463,29	40598,11
463,50	39535,83
463,70	40571,28
463,91	39009,09
464,11	39116,20
464,31	40206,75
464,52	40496,53
464,72	41519,90
464,93	41170,73
465,13	41824,85
465,33	40262,45
465,54	39695,16
465,74	39178,26
465,95	40232,55
466,15	39995,60
466,35	40900,60
466,56	40935,41
466,76	41352,38
466,96	40636,82
467,17	41013,03
467,37	41438,80
467,58	41347,67
467,78	41621,48
467,98	42536,31
468,19	41505,77
468,39	42992,19
468,59	42869,11
468,80	41735,76
469,00	41602,23
469,21	41137,34
469,41	41355,25
469,61	42662,47
469,82	41131,40
470,02	42742,13
470,22	44044,64
470,43	43758,13
470,63	43349,35
470,83	46275,49
471,04	44968,27
471,24	45271,58
471,45	45147,68
471,65	45956,83
471,85	44816,93
472,06	45895,18
472,26	45553,99
472,46	45658,03
472,67	46115,34
472,87	46341,64
473,07	46209,55
473,28	46081,96
473,48	47544,41
473,68	47448,16
473,89	47739,99
474,09	48164,95
474,29	47677,33
474,50	48399,24
474,70	47904,45
474,90	48345,78
475,11	48401,08
475,31	48060,71
475,51	47724,84
475,72	47923,49
475,92	47545,85
476,12	47364,60
476,33	49362,60
476,53	49999,93
476,73	50260,84
476,93	51263,32
477,14	50808,88
477,34	50522,98
477,54	51341,55
477,75	51756,68
477,95	51755,24
478,15	52063,87
478,36	52925,45
478,56	53079,66
478,76	53742,59
478,97	54304,14
479,17	53372,32
479,37	53655,35
479,57	53957,01
479,78	53912,78
479,98	54502,59
480,18	55326,08
480,39	55598,67
480,59	56761,09
480,79	56465,16
480,99	56536,63
481,20	57238,68
481,40	56922,06
481,60	57101,26
481,81	56584,15
482,01	57077,50
482,21	56960,15
482,41	57224,96
482,62	57054,16
482,82	57394,32
483,02	58253,45
483,23	57655,65
483,43	58168,46
483,63	57397,40
483,83	57509,22
484,04	58579,07
484,24	57157,78
484,44	56697,40
484,64	54925,09
484,85	53537,59
485,05	52750,35
485,25	51944,88
485,45	51439,24
485,66	51850,47
485,86	51871,36
486,06	52593,27
486,26	53539,64
486,47	54276,50
486,67	55553,41
486,87	56287,81
487,07	57032,45
487,28	56704,36
487,48	57068,08
487,68	58487,33
487,88	57943,59
488,09	58363,42
488,29	58380,22
488,49	59925,20
488,69	60054,02
488,90	61157,88
489,10	60865,43
489,30	61042,78
489,50	61355,30
489,71	61748,72
489,91	61990,99
490,11	61764,48
490,31	61348,34
490,52	60957,18
490,72	60277,45
490,92	60579,94
491,12	60037,43
491,32	59814,41
491,53	60444,98
491,73	60462,80
491,93	61395,65
492,13	61540,64
492,33	61525,49
492,54	60788,22
492,74	61902,93
492,94	61456,47
493,14	62269,92
493,35	62173,87
493,55	62827,99
493,75	63375,42
493,95	63191,30
494,15	63013,54
494,36	63872,46
494,56	62728,87
494,76	62962,96
494,96	62866,91
495,16	63177,99
495,37	63147,27
495,57	63366,20
495,77	63136,62
495,97	63342,44
496,17	64016,02
496,37	63205,44
496,58	63624,04
496,78	62304,33
496,98	62566,88
497,18	61938,56
497,38	61646,32
497,59	61722,30
497,79	61568,08
497,99	61487,19
498,19	62058,37
498,39	61717,59
498,59	62311,70
498,80	61738,27
499,00	61350,39
499,20	61060,19
499,40	60189,80
499,60	60209,67
499,80	59976,81
500,01	59553,29
500,21	59040,69
500,41	58590,34
500,61	58443,50
500,81	57468,67
501,01	58121,76
501,22	57708,69
501,42	57992,13
501,62	57841,40
501,82	57769,92
502,02	57788,97
502,22	57504,30
502,42	57031,01
502,63	56819,66
502,83	55654,37
503,03	55318,91
503,23	55280,62
503,43	54734,01
503,63	54740,36
503,83	55648,84
504,04	55132,34
504,24	55803,05
504,44	55899,92
504,64	56813,11
504,84	56915,71
505,04	56861,85
505,24	57457,40
505,44	57541,16
505,65	57077,50
505,85	56942,54
506,05	56660,74
506,25	56203,43
506,45	55495,24
506,65	55215,70
506,85	55286,15
507,05	55296,59
507,26	54966,25
507,46	54923,04
507,66	55790,15
507,86	55789,74
508,06	56702,52
508,26	56483,18
508,46	56284,33
508,66	56558,96
508,86	56750,44
509,06	56844,04
509,27	57037,36
509,47	56933,74
509,67	57142,63
509,87	57205,91
510,07	57439,58
510,27	58446,16
510,47	58450,46
510,67	58778,34
510,87	58801,28
511,07	59203,09
511,28	58920,06
511,48	57757,63
511,68	58095,55
511,88	58218,84
512,08	57818,05
512,28	57885,84
512,48	57201,00
512,68	57429,96
512,88	57031,01
513,08	57139,97
513,28	56948,69
513,48	56853,66
513,68	57400,47
513,89	57294,79
514,09	56945,61
514,29	58141,01
514,49	57971,44
514,69	57969,60
514,89	58197,74
515,09	57874,37
515,29	57292,34
515,49	56332,86
515,69	54640,63
515,89	53837,21
516,09	53334,02
516,29	52923,61
516,49	52927,91
516,69	53589,40
516,89	53423,52
517,09	53592,68
517,29	53588,79
517,50	53602,71
517,70	53654,73
517,90	54101,19
518,10	54619,12
518,30	56241,93
518,50	55631,84
518,70	56733,04
518,90	58092,89
519,10	58303,83
519,30	58701,75
519,50	58846,13
519,70	59115,64
519,90	59084,10
520,10	59585,24
520,30	59618,42
520,50	59769,56
520,70	60545,12
520,90	60026,17
521,10	60346,88
521,30	60169,53
521,50	60660,63
521,70	60204,96
521,90	60052,18
522,10	60104,61
522,30	59484,28
522,50	60109,32
522,70	60159,90
522,90	61124,08
523,10	61247,99
523,30	61658,81
523,50	61495,38
523,70	61893,92
523,90	61958,22
524,10	61998,77
524,30	61596,14
524,50	61899,04
524,70	61882,24
524,90	61521,39
525,10	61091,93
525,30	59906,36
525,50	59177,08
525,70	58322,87
525,90	57057,23
526,10	56837,69
526,30	57281,69
526,50	57285,78
526,70	57956,90
526,90	58508,21
527,10	58659,15
527,30	59406,86
527,50	60442,11
527,70	60586,90
527,90	61245,73
528,10	61218,91
528,30	61833,09
528,50	61990,99
528,70	61629,73
528,90	61737,25
529,10	61655,74
529,30	61490,26
529,50	62069,22
529,70	62034,20
529,90	62337,10
530,10	62732,35
530,29	62409,39
530,49	62826,15
530,69	62860,56
530,89	62559,30
531,09	61599,62
531,29	60877,71
531,49	60564,58
531,69	59922,54
531,89	59421,81
532,09	59567,22
532,29	59223,77
532,49	59474,65
532,69	59770,17
532,89	59861,72
533,09	59522,98
533,29	60080,03
533,49	59889,57
533,68	60054,23
533,88	61141,90
534,08	60989,12
534,28	60958,61
534,48	61389,91
534,68	61831,86
534,88	61367,18
535,08	61955,97
535,28	61700,79
535,48	61134,73
535,68	60521,78
535,88	60253,08
536,08	60154,99
536,27	59925,20
536,47	59535,27
536,67	60419,38
536,87	60331,32
537,07	60066,31
537,27	60366,34
537,47	60199,22
537,67	59645,45
537,87	60071,02
538,07	60312,27
538,27	59373,89
538,46	59204,93
538,66	58718,54
538,86	58059,50
539,06	58164,77
539,26	57447,98
539,46	56812,09
539,66	56706,62
539,86	56497,52
540,06	56491,99
540,25	56276,54
540,45	56205,89
540,65	56355,39
540,85	56989,44
541,05	57171,51
541,25	57062,76
541,45	57099,01
541,65	56793,04
541,85	56984,73
542,04	56750,85
542,24	56697,20
542,44	56669,75
542,64	56661,15
542,84	56915,51
543,04	57026,10
543,24	56949,71
543,43	57288,44
543,63	57230,08
543,83	56961,59
544,03	56764,98
544,23	56784,23
544,43	56844,85
544,63	56437,10
544,82	56951,14
545,02	56127,25
545,22	56781,16
545,42	56041,23
545,62	56757,82
545,82	56549,74
546,02	56206,71
546,21	55966,48
546,41	55625,90
546,61	55275,09
546,81	55587,61
547,01	54901,74
547,21	55334,48
547,40	55085,03
547,60	55043,05
547,80	55082,37
548,00	55591,91
548,20	55608,50
548,40	55344,51
548,59	55724,82
548,79	55373,18
548,99	55654,78
549,19	55308,06
549,39	54959,70
549,59	55325,06
549,78	54554,00
549,98	54988,17
550,18	54594,96
550,38	54613,39
550,58	54720,09
550,77	54968,91
550,97	55099,58
551,17	54536,79
551,37	55046,53
551,57	54533,72
551,76	54224,27
551,96	53805,26
552,16	53408,16
552,36	54089,31
552,56	53749,76
552,75	54027,67
552,95	54030,74
553,15	54130,27
553,35	53746,48
553,55	53613,36
553,74	54320,94
553,94	53736,65
554,14	53916,67
554,34	53660,67
554,54	53747,10
554,73	54047,94
554,93	53671,12
555,13	53496,63
555,33	52907,84
555,53	52967,03
555,72	52260,48
555,92	51980,11
556,12	51983,80
556,32	51543,28
556,51	51510,51
556,71	51811,97
556,91	51365,72
557,11	51456,03
557,30	51309,60
557,50	50794,13
557,70	50274,77
557,90	50325,56
558,10	50045,39
558,29	49387,18
558,49	49782,02
558,69	49280,07
558,89	49018,54
559,08	49339,25
559,28	49408,47
559,48	49329,63
559,68	49674,51
559,87	50114,20
560,07	50150,25
560,27	50459,29
560,47	49902,24
560,66	49952,42
560,86	49433,66
561,06	48993,56
561,25	49523,37
561,45	49366,70
561,65	49344,99
561,85	49124,63
562,04	49070,15
562,24	49222,31
562,44	49412,98
562,64	48854,91
562,83	48868,84
563,03	48737,97
563,23	48833,81
563,42	48434,05
563,62	48716,67
563,82	48396,78
564,02	48780,16
564,21	48222,70
564,41	47878,03
564,61	47695,35
564,80	47332,65
565,00	46964,63
565,20	46916,71
565,40	46647,61
565,59	46729,53
565,79	47021,98
565,99	47076,04
566,18	47130,72
566,38	47103,08
566,58	46797,52
566,78	46757,99
566,97	46785,03
567,17	46447,11
567,37	46031,78
567,56	45474,12
567,76	44927,72
567,96	44795,02
568,15	44497,86
568,35	44357,98
568,55	44382,96
568,74	44062,87
568,94	44068,19
569,14	43919,51
569,33	43586,10
569,53	43462,61
569,73	43465,06
569,92	42774,90
570,12	42805,62
570,32	42865,01
570,52	42524,02
570,71	42758,31
570,91	42703,43
571,11	43204,97
571,30	43011,23
571,50	43228,52
571,70	43270,71
571,89	43281,57
572,09	43354,88
572,28	43409,77
572,48	43398,10
572,68	43243,06
572,87	43615,39
573,07	43625,83
573,27	42906,58
573,46	43128,17
573,66	43006,52
573,86	42526,89
574,05	42752,37
574,25	42218,88
574,45	42037,43
574,64	41988,68
574,84	41885,06
575,04	41832,83
575,23	41994,21
575,43	42078,18
575,62	42235,05
575,82	41901,85
576,02	41615,95
576,21	41994,42
576,41	42331,92
576,61	42117,71
576,80	41839,80
577,00	41591,38
577,19	41466,86
577,39	41656,09
577,59	41447,82
577,78	41247,73
577,98	41572,33
578,18	41381,26
578,37	41655,68
578,57	42027,39
578,76	41976,60
578,96	42064,87
579,16	42538,56
579,35	43057,93
579,55	42585,26
579,74	42657,55
579,94	42954,71
580,14	43242,86
580,33	43533,67
580,53	43630,95
580,72	43446,84
580,92	43830,42
581,12	43613,95
581,31	44117,75
581,51	44466,93
581,70	44109,15
581,90	44737,88
582,10	44454,23
582,29	44842,94
582,49	44557,86
582,68	44886,36
582,88	45080,30
583,07	44887,38
583,27	44895,78
583,47	45035,65
583,66	44976,26
583,86	44553,76
584,05	44622,17
584,25	44331,77
584,44	44153,59
584,64	43698,94
584,84	43883,87
585,03	43323,35
585,23	43292,83
585,42	43577,29
585,62	43121,62
585,81	43286,07
586,01	43197,40
586,20	43136,16
586,40	43044,00
586,60	42280,52
586,79	42447,22
586,99	41713,64
587,18	41224,79
587,38	40355,63
587,57	39055,38
587,77	37990,23
587,96	37027,48
588,16	35791,12
588,35	35058,36
588,55	34293,24
588,75	33823,84
588,94	33925,42
589,14	34124,69
589,33	34166,88
589,53	35242,47
589,72	34977,67
589,92	35935,09
590,11	35613,15
590,31	36075,38
590,50	36291,24
590,70	36027,66
590,89	36234,30
591,09	35902,94
591,28	35941,44
591,48	36111,42
591,67	36177,57
591,87	36701,44
592,06	37002,90
592,26	37282,25
592,45	37458,78
592,65	37811,44
592,84	37395,09
593,04	37405,33
593,23	36861,18
593,43	36549,07
593,62	35961,92
593,82	35592,47
594,01	35631,58
594,21	35937,55
594,40	35951,68
594,60	36005,34
594,79	36638,16
594,99	36476,17
595,18	37111,65
595,38	37003,52
595,57	37043,25
595,77	37637,77
595,96	37382,60
596,16	37523,70
596,35	37285,32
596,55	37242,11
596,74	37375,63
596,94	37460,63
597,13	37483,56
597,33	37628,56
597,52	37382,39
597,72	37552,37
597,91	37658,46
598,11	37605,62
598,30	37699,01
598,50	38141,78
598,69	38018,90
598,88	38051,26
599,08	37846,05
599,27	38300,29
599,47	38064,98
599,66	38244,79
599,86	38336,34
600,05	38385,28
600,25	38453,28
600,44	37778,88
600,64	38326,92
600,83	38026,48
601,02	38087,71
601,22	37770,28
601,41	37602,75
601,61	38053,10
601,80	37943,74
602,00	38279,20
602,19	38080,55
602,38	38337,77
602,58	38273,67
602,77	38535,19
602,97	38709,27
603,16	38861,23
603,36	38304,80
603,55	38860,00
603,74	38331,63
603,94	38603,19
604,13	38538,68
604,33	38506,32
604,52	38323,84
604,72	38153,45
604,91	37985,93
605,10	38296,40
605,30	37782,36
605,49	37754,92
605,69	37813,29
605,88	37532,10
606,07	37824,96
606,27	37810,83
606,46	37492,78
606,66	37469,23
606,85	36907,26
607,04	37109,40
607,24	36662,12
607,43	37031,78
607,63	36583,89
607,82	36630,79
608,01	36565,66
608,21	36333,63
608,40	36417,19
608,60	36029,30
608,79	36136,61
608,98	35471,02
609,18	36166,51
609,37	35461,40
609,57	35215,85
609,76	35559,91
609,95	35607,62
610,15	35810,37
610,34	35713,50
610,53	35770,44
610,73	35466,52
610,92	35662,10
611,11	35423,31
611,31	35382,55
611,50	35137,00
611,70	35206,43
611,89	35224,86
612,08	35132,08
612,28	35195,78
612,47	35231,82
612,66	34926,47
612,86	34796,01
613,05	34664,53
613,24	34516,87
613,44	34715,12
613,63	34843,32
613,82	34776,56
614,02	35007,98
614,21	34788,03
614,41	34827,35
614,60	35087,85
614,79	34526,71
614,99	34516,87
615,18	34749,32
615,37	34229,34
615,57	34754,85
615,76	34117,32
615,95	34198,62
616,15	34016,15
616,34	34599,61
616,53	34582,41
616,73	35046,48
616,92	34960,26
617,11	34982,79
617,30	35131,88
617,50	35197,01
617,69	35483,93
617,88	35653,50
618,08	35293,06
618,27	35599,43
618,46	35703,26
618,66	35670,91
618,85	35917,69
619,04	35847,65
619,24	36341,21
619,43	36356,16
619,62	36208,50
619,82	36436,23
620,01	36284,07
620,20	36518,56
620,39	36049,98
620,59	36129,45
620,78	36162,42
620,97	36164,67
621,17	36285,50
621,36	36296,15
621,55	35947,38
621,74	36114,90
621,94	35744,22
622,13	35965,20
622,32	35728,86
622,52	35740,33
622,71	35573,01
622,90	35410,61
623,09	35278,10
623,29	35591,65
623,48	35201,31
623,67	35206,84
623,86	34953,50
624,06	34870,76
624,25	34988,11
624,44	34680,92
624,64	34715,12
624,83	34474,69
625,02	34111,79
625,21	34216,23
625,41	34524,25
625,60	34457,48
625,79	34320,88
625,98	34365,33
626,18	34482,88
626,37	33690,31
626,56	33125,89
626,75	32963,49
626,95	32039,65
627,14	31627,40
627,33	31642,55
627,52	31475,23
627,72	31345,80
627,91	31597,50
628,10	31890,56
628,29	31689,04
628,49	31519,06
628,68	31369,35
628,87	31340,88
629,06	31792,87
629,25	31592,99
629,45	31582,34
629,64	31713,00
629,83	32275,78
630,02	32083,89
630,22	32057,06
630,41	32161,51
630,60	31856,77
630,79	31714,64
630,98	31739,83
631,18	31694,57
631,37	31637,02
631,56	32077,95
631,75	32335,17
631,94	32297,70
632,14	32301,79
632,33	32429,79
632,52	32613,49
632,71	32413,00
632,90	32606,53
633,10	32536,69
633,29	32426,72
633,48	32521,33
633,67	32607,96
633,86	32750,91
634,06	32845,94
634,25	32826,07
634,44	33026,16
634,63	32674,52
634,82	32969,22
635,02	32386,37
635,21	32768,32
635,40	32737,60
635,59	32751,73
635,78	32805,80
635,97	32878,91
636,17	32613,49
636,36	33210,68
636,55	33152,93
636,74	33404,21
636,93	32911,68
637,12	33375,34
637,32	33721,24
637,51	33180,98
637,70	33127,53
637,89	33332,74
638,08	33532,01
638,27	33280,93
638,47	33184,47
638,66	33123,85
638,85	32733,50
639,04	33039,47
639,23	32525,84
639,42	32695,00
639,62	32723,26
639,81	32589,12
640,00	32566,59
640,19	32240,76
640,38	32243,02
640,57	32383,10
640,76	32067,71
640,95	32171,34
641,15	32327,39
641,34	32180,55
641,53	32069,76
641,72	32183,62
641,91	32196,12
642,10	32179,53
642,29	32145,53
642,49	32223,76
642,68	32115,02
642,87	32249,57
643,06	32300,77
643,25	32143,07
643,44	31995,62
643,63	32050,71
643,82	31671,22
644,01	32002,99
644,21	31671,84
644,40	31633,74
644,59	31174,39
644,78	31184,22
644,97	30610,17
645,16	30501,01
645,35	30036,53
645,54	30202,21
645,73	29500,58
645,92	29455,12
646,12	29092,22
646,31	28635,52
646,50	28318,90
646,69	28331,39
646,88	27903,37
647,07	27609,28
647,26	27332,40
647,45	27222,62
647,64	27159,14
647,83	27388,51
648,02	27160,78
648,22	27045,88
648,41	26951,06
648,60	26858,70
648,79	26993,25
648,98	27277,31
649,17	27351,85
649,36	27890,26
649,55	28114,92
649,74	28184,15
649,93	28328,53
650,12	28736,07
650,31	28182,92
650,50	27801,38
650,69	27682,80
650,88	27791,76
651,08	27036,67
651,27	27513,85
651,46	27518,56
651,65	27771,07
651,84	27716,80
652,03	28022,77
652,22	28062,70
652,41	28046,11
652,60	28220,19
652,79	28387,30
652,98	28153,22
653,17	28194,59
653,36	28165,30
653,55	27947,81
653,74	27712,09
653,93	27723,76
654,12	27233,07
654,31	27266,45
654,50	27037,49
654,69	26474,91
654,88	25856,42
655,07	25282,99
655,26	24359,56
655,45	24100,70
655,64	23827,09
655,83	23882,18
656,02	23874,20
656,21	24231,57
656,40	24494,94
656,59	25068,78
656,78	25155,00
656,97	25789,05
657,17	26028,25
657,36	26273,39
657,55	26217,28
657,74	26837,81
657,93	26860,75
658,12	27113,88
658,31	27338,95
658,50	27465,51
658,69	27213,82
658,87	27769,64
659,06	27534,53
659,25	27705,54
659,44	27720,69
659,63	27987,13
659,82	27979,76
660,01	27826,37
660,20	28040,58
660,39	28176,77
660,58	28133,15
660,77	28239,03
660,96	28350,44
661,15	28080,52
661,34	28330,99
661,53	28275,89
661,72	28225,31
661,91	28371,94
662,10	28043,25
662,29	28025,84
662,48	27713,32
662,67	28005,56
662,86	27657,82
663,05	27678,91
663,24	27800,77
663,43	27617,68
663,62	27507,70
663,81	27566,89
664,00	27745,47
664,19	27467,77
664,38	27698,98
664,57	27542,72
664,76	27715,98
664,94	27565,86
665,13	27287,14
665,32	27353,69
665,51	27483,95
665,70	27119,82
665,89	27136,00
666,08	27000,42
666,27	27174,91
666,46	27137,63
666,65	26956,80
666,84	26949,22
667,03	27071,28
667,22	26785,38
667,41	26821,84
667,60	26891,88
667,78	26931,40
667,97	26860,13
668,16	26776,37
668,35	26767,98
668,54	26547,61
668,73	26589,80
668,92	26542,08
669,11	26473,07
669,30	26396,06
669,49	26380,91
669,68	26255,37
669,86	26321,72
670,05	26214,00
670,24	26090,71
670,43	25818,54
670,62	25832,67
670,81	25900,46
671,00	25722,28
671,19	25650,60
671,38	25492,09
671,57	25626,23
671,75	25562,95
671,94	25453,38
672,13	25527,93
672,32	25664,94
672,51	25426,56
672,70	25556,19
672,89	25440,48
673,08	25358,56
673,26	25486,15
673,45	25234,87
673,64	25356,72
673,83	25234,46
674,02	25230,16
674,21	25130,83
674,40	25249,20
674,59	25240,40
674,77	25109,74
674,96	25014,10
675,15	25134,31
675,34	25010,00
675,53	24780,22
675,72	24666,76
675,91	24814,01
676,09	24740,49
676,28	24750,32
676,47	24433,09
676,66	24469,54
676,85	24574,81
677,04	24784,11
677,22	24611,87
677,41	24466,67
677,60	24410,15
677,79	24288,50
677,98	24218,66
678,17	24345,23
678,36	24312,46
678,54	24322,09
678,73	24199,62
678,92	24126,71
679,11	24061,99
679,30	23971,27
679,48	23929,29
679,67	23879,32
679,86	24024,52
680,05	23773,64
680,24	23803,75
680,43	23736,16
680,61	23521,95
680,80	23613,69
680,99	23625,78
681,18	23526,86
681,37	23378,18
681,55	23549,39
681,74	23224,99
681,93	23453,34
682,12	23236,87
682,31	23294,62
682,49	23152,70
682,68	22811,91
682,87	23003,81
683,06	22942,37
683,25	22703,37
683,43	22799,22
683,62	22533,39
683,81	22719,35
684,00	22595,03
684,19	22569,43
684,37	22362,79
684,56	22352,96
684,75	22379,38
684,94	22175,00
685,12	22111,92
685,31	21808,00
685,50	21233,75
685,69	20297,01
685,88	18848,07
686,06	17509,52
686,25	16141,88
686,44	15125,48
686,63	14388,41
686,81	14199,18
687,00	14251,00
687,19	14365,68
687,38	14517,03
687,56	14773,84
687,75	14685,78
687,94	14843,06
688,13	14631,30
688,31	14586,25
688,50	14439,82
688,69	14723,67
688,88	14903,48
689,06	15006,29
689,25	15164,59
689,44	15454,18
689,63	15432,67
689,81	15916,61
690,00	16018,19
690,19	16336,03
690,38	16389,69
690,56	16635,85
690,75	16982,99
690,94	16957,18
691,13	17228,95
691,31	17260,08
691,50	17163,21
691,69	17104,23
691,87	17023,74
692,06	16871,78
692,25	16752,79
692,44	16569,50
692,62	16356,72
692,81	16149,67
693,00	16037,85
693,18	15970,06
693,37	15896,54
693,56	15747,45
693,75	15810,11
693,93	15852,30
694,12	15945,89
694,31	15883,02
694,49	15865,61
694,68	16226,06
694,87	16073,48
695,05	16376,99
695,24	16600,43
695,43	16717,98
695,62	16989,74
695,80	17352,64
695,99	17700,59
696,18	17748,93
696,36	18072,71
696,55	18115,72
696,74	18196,00
696,92	18141,93
697,11	18088,07
697,30	18002,46
697,48	17955,57
697,67	17739,30
697,86	17446,65
698,04	17458,32
698,23	17045,24
698,42	16931,79
698,60	16667,19
698,79	16576,87
698,98	16312,28
699,16	16313,71
699,35	16223,60
699,54	15989,11
699,72	15882,41
699,91	15918,25
700,10	15816,46
700,28	15739,25
700,47	15672,49
700,66	15764,65
700,84	15647,71
701,03	15643,61
701,21	15546,13
701,40	15848,00
701,59	15530,16
701,77	15686,01
701,96	15771,41
702,15	16071,03
702,33	16250,63
702,52	16456,25
702,71	16444,37
702,89	16699,34
703,08	16589,98
703,26	16579,95
703,45	16813,00
703,64	16904,34
703,82	16975,41
704,01	16875,88
704,20	16755,87
704,38	16714,70
704,57	16644,46
704,75	16595,31
704,94	16658,79
705,13	16589,57
705,31	16802,35
705,50	16687,87
705,68	16733,75
705,87	16795,19
706,06	16717,36
706,24	16997,94
706,43	16807,68
706,61	16916,84
706,80	16846,59
706,99	17000,19
707,17	17009,61
707,36	16959,23
707,54	16934,86
707,73	16934,65
707,92	17054,05
708,10	17034,80
708,29	16955,54
708,47	17020,05
708,66	16861,75
708,84	17037,46
709,03	17059,78
709,22	16881,41
709,40	16824,68
709,59	17095,01
709,77	16861,13
709,96	16856,22
710,14	16914,38
710,33	16960,25
710,52	17011,45
710,70	17064,90
710,89	16943,66
711,07	17061,01
711,26	17032,75
711,44	16874,03
711,63	16799,90
711,81	16936,29
712,00	16846,18
712,19	16763,24
712,37	16633,60
712,56	16609,03
712,74	16516,05
712,93	16603,50
713,11	16662,68
713,30	16373,51
713,48	16244,49
713,67	16351,19
713,85	15936,27
714,04	15893,47
714,22	15781,85
714,41	15791,68
714,59	15545,93
714,78	15494,52
714,97	15287,27
715,15	14861,09
715,34	14668,37
715,52	14305,88
715,71	13783,24
715,89	13030,41
716,08	12425,64
716,26	11707,01
716,45	11033,43
716,63	10674,01
716,82	10222,03
717,00	10105,70
717,19	9654,53
717,37	9401,00
717,56	9047,31
717,74	8800,12
717,93	8509,72
718,11	8405,27
718,30	8080,47
718,48	8089,27
718,67	7890,82
718,85	7683,57
719,04	7516,25
719,22	7489,83
719,41	7576,05
719,59	7697,09
719,78	7789,45
719,96	8151,33
720,15	8633,21
720,33	9223,85
720,52	9533,09
720,70	10041,81
720,88	10495,43
721,07	10847,48
721,25	11085,86
721,44	11343,29
721,62	11425,00
721,81	11638,20
721,99	11440,16
722,18	11130,71
722,36	10952,33
722,55	10525,54
722,73	10110,21
722,92	9905,00
723,10	9616,03
723,28	9512,00
723,47	9250,06
723,65	9112,03
723,84	9014,75
724,02	8957,20
724,21	8773,70
724,39	8725,37
724,58	8542,69
724,76	8756,50
724,94	8557,44
725,13	8803,81
725,31	8473,88
725,50	8628,09
725,68	8732,74
725,87	8747,69
726,05	8835,35
726,23	8792,34
726,42	8820,60
726,60	8628,30
726,79	8500,71
726,97	8462,82
727,16	8423,09
727,34	8596,96
727,52	8751,99
727,71	8919,72
727,89	8933,03
728,08	8731,51
728,26	8749,54
728,44	8667,82
728,63	8612,73
728,81	8656,15
729,00	8692,81
729,18	8932,01
729,36	8804,83
729,55	8855,21
729,73	8736,02
729,92	8799,51
730,10	8627,48
730,28	8857,67
730,47	8805,65
730,65	8872,82
730,84	8937,34
731,02	9200,29
731,20	9495,41
731,39	9679,72
731,57	9929,58
731,75	10460,41
731,94	10508,13
732,12	10672,17
732,31	10840,51
732,49	11097,74
732,67	11174,33
732,86	11438,72
733,04	11637,38
733,22	11957,88
733,41	11823,33
733,59	12134,62
733,78	11959,73
733,96	11827,02
734,14	11928,39
734,33	11960,75
734,51	11774,39
734,69	11797,32
734,88	11762,92
735,06	11744,69
735,24	11539,69
735,43	11569,79
735,61	11538,05
735,79	11389,78
735,98	11402,07
736,16	11507,13
736,34	11454,90
736,53	11700,25
736,71	11826,41
736,89	11865,93
737,08	11711,92
737,26	12006,83
737,44	11818,42
737,63	11844,22
737,81	11853,85
737,99	11916,31
738,18	11858,35
738,36	11823,74
738,54	11877,19
738,73	11953,79
738,91	11893,17
739,09	12127,25
739,28	12046,56
739,46	12159,61
739,64	12369,32
739,82	12258,32
740,01	12308,70
740,19	12405,57
740,37	12283,51
740,56	12204,46
740,74	12286,17
740,92	12318,74
741,11	12337,37
741,29	12475,61
741,47	12405,37
741,65	12417,04
741,84	12448,78
742,02	12506,74
742,20	12495,07
742,39	12513,91
742,57	12681,84
742,75	12730,17
742,93	12596,24
743,12	12556,71
743,30	12523,12
743,48	12697,20
743,67	12553,64
743,85	12530,29
744,03	12597,47
744,21	12539,71
744,40	12500,39
744,58	12478,48
744,76	12485,03
744,94	12450,01
745,13	12434,65
745,31	12510,84
745,49	12400,86
745,67	12478,27
745,86	12414,58
746,04	12360,52
746,22	12335,33
746,40	12332,87
746,59	12234,77
746,77	12467,01
746,95	12225,35
747,13	12327,13
747,32	12120,29
747,50	12254,84
747,68	12055,37
747,86	12081,99
748,05	12065,81
748,23	12067,04
748,41	11998,43
748,59	12024,44
748,77	11871,46
748,96	11720,53
749,14	11806,13
749,32	11795,28
749,50	11715,20
749,69	11782,58
749,87	11514,09
750,05	11588,23
750,23	11467,40
750,41	11437,29
750,60	11509,99
750,78	11480,50
750,96	11468,22
751,14	11388,14
751,32	11500,78
751,51	11425,21
751,69	11372,98
751,87	11177,40
752,05	11277,55
752,23	11392,03
752,42	11203,41
752,60	11433,20
752,78	11113,51
752,96	11364,79
753,14	11305,81
753,33	11333,66
753,51	11315,03
753,69	11368,68
753,87	11290,86
754,05	11353,94
754,23	11255,23
754,42	11309,09
754,60	11271,41
754,78	11306,63
754,96	11179,25
755,14	11275,30
755,32	11140,54
755,51	11335,51
755,69	11132,55
755,87	11385,68
756,05	11286,77
756,23	11261,78
756,41	11172,28
756,60	11367,05
756,78	11169,62
756,96	11276,94
757,14	11204,64
757,32	11338,78
757,50	11295,57
757,68	11140,13
757,87	11020,32
758,05	10783,78
758,23	10375,21
758,41	9871,82
758,59	8983,21
758,77	7900,45
758,95	6821,17
759,14	5757,45
759,32	4696,40
759,50	3840,35
759,68	3202,41
759,86	2636,35
760,04	2250,72
760,22	2011,92
760,40	1981,82
760,59	2036,30
760,77	2235,77
760,95	2465,75
761,13	2738,95
761,31	2838,89
761,49	2924,09
761,67	2818,00
761,85	2511,63
762,03	2341,24
762,22	2199,72
762,40	2114,94
762,58	2120,06
762,76	1998,82
762,94	2114,94
763,12	2273,04
763,30	2394,69
763,48	2513,68
763,66	2760,87
763,84	2965,87
764,02	3201,79
764,21	3475,40
764,39	3754,54
764,57	4145,09
764,75	4440,41
764,93	4733,88
765,11	4988,03
765,29	5492,86
765,47	5805,17
765,65	6208,21
765,83	6453,76
766,01	6939,54
766,19	7340,53
766,37	7773,07
766,56	8052,82
766,74	8397,08
766,92	8657,79
767,10	8950,65
767,28	9163,64
767,46	9476,77
767,64	9586,34
767,82	9818,37
768,00	9816,12
768,18	10163,45
768,36	10114,71
768,54	10119,42
768,72	10222,03
768,90	10382,18
769,08	10298,21
769,26	10375,83
769,44	10573,66
769,62	10605,82
769,80	10525,74
769,98	10665,21
770,16	10645,14
770,34	10508,74
770,52	10652,92
770,71	10542,53
770,89	10624,25
771,07	10576,12
771,25	10403,07
771,43	10501,98
771,61	10451,60
771,79	10442,39
771,97	10451,19
772,15	10357,40
772,33	10343,27
772,51	10241,28
772,69	10182,71
772,87	10236,36
773,05	10198,88
773,23	10256,43
773,41	10099,35
773,59	10034,43
773,77	9981,80
773,95	10027,67
774,13	9869,37
774,31	9883,50
774,49	9836,39
774,67	9784,17
774,85	9878,38
775,03	9707,99
775,21	9709,62
775,39	9750,58
775,57	9642,25
775,75	9656,58
775,93	9616,03
776,10	9519,78
776,28	9474,52
776,46	9388,71
776,64	9384,82
776,82	9304,13
777,00	9280,37
777,18	9157,49
777,36	8993,04
777,54	9207,46
777,72	9121,65
777,90	9014,34
778,08	9038,91
778,26	9068,82
778,44	8975,43
778,62	8951,88
778,80	8879,79
778,98	8757,73
779,16	8770,63
779,34	8679,91
779,52	8627,07
779,70	8584,88
779,88	8587,95
780,05	8576,07
780,23	8462,21
780,41	8607,61
780,59	8527,33
780,77	8418,99
780,95	8423,50
781,13	8380,90
781,31	8316,60
781,49	8188,19
781,67	8191,06
781,85	8364,52
782,03	8092,75
782,21	8101,35
782,39	8057,94
782,56	7904,75
782,74	7796,00
782,92	7913,97
783,10	7869,32
783,28	7945,50
783,46	7761,60
783,64	7771,02
783,82	7796,41
784,00	7723,30
784,18	7603,70
784,35	7644,04
784,53	7624,38
784,71	7509,29
784,89	7518,09
785,07	7427,37
785,25	7439,86
785,43	7421,43
785,61	7239,16
785,79	7223,19
785,96	7066,72
786,14	7124,06
786,32	6953,88
786,50	7075,73
786,68	6726,96
786,86	6803,35
787,04	6822,19
787,22	6721,43
787,39	6720,00
787,57	6680,27
787,75	6507,22
787,93	6520,73
788,11	6394,58
788,29	6360,99
788,47	6227,87
788,65	6122,81
788,82	6066,49
789,00	6043,35
789,18	5964,30
789,36	6073,87
789,54	5985,60
789,72	5984,37
789,89	5990,31
790,07	5903,47
790,25	5900,40
790,43	5899,79
790,61	5808,65
790,79	5836,92
790,96	5803,53
791,14	5704,21
791,32	5725,10
791,50	5774,25
791,68	5695,40
791,86	5721,00
792,03	5602,63
792,21	5738,61
792,39	5698,06
792,57	5772,00
792,75	5623,93
792,93	5767,90
793,10	5735,34
793,28	5779,16
793,46	5755,82
793,64	5726,53
793,82	5685,98
793,99	5738,82
794,17	5726,74
794,35	5678,81
794,53	5651,16
794,71	5607,95
794,88	5432,65
795,06	5330,66
795,24	5278,43
795,42	5194,67
795,60	5083,47
795,77	5103,95
795,95	5026,33
796,13	5131,19
796,31	5075,69
796,49	5106,00
796,66	5084,70
796,84	5196,31
797,02	5298,71
797,20	5205,73
797,37	5175,01
797,55	5132,21
797,73	5120,13
797,91	5176,04
798,08	5164,57
798,26	5140,40
798,44	5013,43
798,62	5063,60
798,80	4983,53
798,97	4892,60
799,15	4807,81
799,33	4872,32
799,51	4839,15
799,68	4760,30
799,86	4788,36
800,04	4800,64
800,22	4680,22
800,39	4721,59
800,57	4633,32
800,75	4637,22
800,93	4561,85
801,10	4680,43
801,28	4512,90
801,46	4487,10
801,63	4461,91
801,81	4471,53
801,99	4490,17
802,17	4430,99
802,34	4327,36
802,52	4447,16
802,70	4507,37
802,88	4476,25
803,05	4355,62
803,23	4398,83
803,41	4288,04
803,58	4396,99
803,76	4378,56
803,94	4399,65
804,12	4420,34
804,29	4427,91
804,47	4456,38
804,65	4510,86
804,82	4459,04
805,00	4413,58
805,18	4522,73
805,35	4506,15
805,53	4465,39
805,71	4509,01
805,89	4539,94
806,06	4460,68
806,24	4412,35
806,42	4423,41
806,59	4327,36
806,77	4470,31
806,95	4421,56
807,12	4348,25
807,30	4284,35
807,48	4259,16
807,65	4175,81
807,83	4295,00
808,01	4234,99
808,18	4172,33
808,36	4155,53
808,54	4107,00
808,71	4071,57
808,89	3995,79
809,07	3910,39
809,24	3927,59
809,42	3874,76
809,60	3842,81
809,77	3843,63
809,95	3804,72
810,13	3726,89
810,30	3767,44
810,48	3710,92
810,66	3570,63
810,83	3498,95
811,01	3600,94
811,18	3499,77
811,36	3485,64
811,54	3342,69
811,71	3339,83
811,89	3303,17
812,07	3270,20
812,24	3260,57
812,42	3056,18
812,59	3037,14
812,77	2943,34
812,95	2736,50
813,12	2887,84
813,30	2755,34
813,48	2686,32
813,65	2670,96
813,83	2528,63
814,00	2528,83
814,18	2442,61
814,36	2375,23
814,53	2309,49
814,71	2311,34
814,88	2327,31
815,06	2251,95
815,24	2251,74
815,41	2141,15
815,59	1996,16
815,76	1992,06
815,94	2060,46
816,12	2081,76
816,29	2030,97
816,47	2000,46
816,64	2040,80
816,82	2057,18
817,00	1966,25
817,17	1957,86
817,35	1973,63
817,52	1884,75
817,70	2011,11
817,87	1945,16
818,05	2013,56
818,23	1991,65
818,40	2000,05
818,58	1917,51
818,75	1970,15
818,93	2063,94
819,10	2045,10
819,28	2079,51
819,46	2244,37
819,63	2255,02
819,81	2365,61
819,98	2416,40
820,16	2469,44
820,33	2579,01
820,51	2482,34
820,68	2496,88
820,86	2471,90
821,03	2378,31
821,21	2403,70
821,39	2263,62
821,56	2308,68
821,74	2110,02
821,91	1956,42
822,09	1785,42
822,26	1853,00
822,44	1688,96
822,61	1821,87
822,79	1783,37
822,96	1907,89
823,14	2012,74
823,31	2109,61
823,49	2097,94
823,66	2210,58
823,84	2212,42
824,01	2200,75
824,19	2245,39
824,36	2400,42
824,54	2370,73
824,71	2252,15
824,89	2337,35
825,06	2197,68
825,24	2220,20
825,41	2330,59
825,59	2284,71
825,76	2309,90
825,94	2338,99
826,11	2407,80
826,29	2404,93
826,46	2295,36
826,64	2225,32
826,81	2204,43
826,99	2076,64
827,16	2116,17
827,34	2119,24
827,51	2057,18
827,69	2132,55
827,86	2084,83
828,04	2144,84
828,21	2099,37
828,39	2038,75
828,56	2064,76
828,74	2121,29
828,91	2056,57
829,09	2063,94
829,26	2064,15
829,43	1977,72
829,61	2114,94
829,78	2039,78
829,96	2085,86
830,13	2138,69
830,31	2108,38
830,48	2072,75
830,66	2172,28
830,83	2018,07
831,01	2047,76
831,18	2116,37
831,35	2066,61
831,53	2041,42
831,70	2055,55
831,88	2094,05
832,05	2156,31
832,23	2048,38
832,40	2114,53
832,57	2090,36
832,75	2106,34
832,92	1971,58
833,10	2047,97
833,27	2103,26
833,45	2118,01
833,62	2108,59
833,79	2153,23
833,97	2188,46
834,14	2141,56
834,32	2176,17
834,49	2224,71
834,66	2156,92
834,84	2165,32
835,01	2107,36
835,19	2244,98
835,36	2228,39
835,53	2190,71
835,71	2228,39
835,88	2273,86
836,06	2287,38
836,23	2275,09
836,40	2227,78
836,58	2218,56
836,75	2338,37
836,93	2352,71
837,10	2233,11
837,27	2236,79
837,45	2227,58
837,62	2253,38
837,79	2248,67
837,97	2300,48
838,14	2238,63
838,32	2304,58
838,49	2267,92
838,66	2335,09
838,84	2352,30
839,01	2244,78
839,18	2318,71
839,36	2324,65
839,53	2281,85
839,70	2297,82
839,88	2267,72
840,05	2228,39
840,23	2159,99
840,40	2268,74
840,57	2234,33
840,75	2259,11
840,92	2257,89
841,09	2277,14
841,27	2259,73
841,44	2196,65
841,61	2237,41
841,79	2158,35
841,96	2267,51
842,13	2227,17
842,31	2223,27
842,48	2245,60
842,65	2195,22
842,83	2246,83
843,00	2175,76
843,17	2152,01
843,35	2207,10
843,52	2168,18
843,69	2211,40
843,86	2155,28
844,04	2187,64
844,21	2130,09
844,38	2144,43
844,56	2154,87
844,73	2175,97
844,90	2152,42
845,08	2218,77
845,25	2174,12
845,42	2307,24
845,60	2174,74
845,77	2161,63
845,94	2145,66
846,11	2133,78
846,29	2140,54
846,46	2165,32
846,63	2168,18
846,81	2074,18
846,98	2014,38
847,15	2104,70
847,32	2121,29
847,50	2120,06
847,67	2100,19
847,84	2000,25
848,01	2019,30
848,19	2076,03
848,36	2040,60
848,53	2040,80
848,71	1917,72
848,88	1971,78
849,05	1996,97
849,22	1923,45
849,40	1918,54
849,57	2044,69
849,74	1848,70
849,91	1877,17
850,09	1873,28
850,26	1919,77
850,43	1918,74
850,60	1906,25
850,78	1874,71
850,95	1940,04
851,12	1896,83
851,29	1836,62
851,47	1867,75
851,64	1842,35
851,81	1842,35
851,98	1841,74
852,15	1832,93
852,33	1806,51
852,50	1808,97
852,67	1795,66
852,84	1747,74
853,02	1764,33
853,19	1648,82
853,36	1680,77
853,53	1661,31
853,70	1604,17
853,88	1629,57
854,05	1535,36
854,22	1660,70
854,39	1545,40
854,56	1712,92
854,74	1720,50
854,91	1666,64
855,08	1631,41
855,25	1622,61
855,42	1719,27
855,60	1764,12
855,77	1622,20
855,94	1705,55
856,11	1714,56
856,28	1701,25
856,46	1609,09
856,63	1718,04
856,80	1665,41
856,97	1684,66
857,14	1625,06
857,31	1708,01
857,49	1742,00
857,66	1667,87
857,83	1676,06
858,00	1675,65
858,17	1670,12
858,34	1614,00
858,52	1718,04
858,69	1592,71
858,86	1687,12
859,03	1761,66
859,20	1578,37
859,37	1701,66
859,55	1617,08
859,72	1670,94
859,89	1613,39
860,06	1694,90
860,23	1633,66
860,40	1678,92
860,57	1637,76
860,75	1527,58
860,92	1524,30
861,09	1476,18
861,26	1580,62
861,43	1551,54
861,60	1502,19
861,77	1609,91
861,95	1609,29
862,12	1580,83
862,29	1546,01
862,46	1580,01
862,63	1539,25
862,80	1444,02
862,97	1521,03
863,14	1576,32
863,31	1610,93
863,49	1496,45
863,66	1471,26
863,83	1514,27
864,00	1540,07
864,17	1515,29
864,34	1396,51
864,51	1474,33
864,68	1439,31
864,85	1428,46
865,02	1387,09
865,20	1390,57
865,37	1384,84
865,54	1449,96
865,71	1350,43
865,88	1352,48
866,05	1250,28
866,22	1267,28
866,39	1253,97
866,56	1224,28
866,73	1278,96
866,90	1305,17
867,07	1325,85
867,25	1272,20
867,42	1276,91
867,59	1278,96
867,76	1225,50
867,93	1309,88
868,10	1360,06
868,27	1330,77
868,44	1253,56
868,61	1237,38
868,78	1237,18
868,95	1293,29
869,12	1311,11
869,29	1299,64
869,46	1277,73
869,63	1287,15
869,80	1271,58
869,97	1305,78
870,14	1213,01
870,32	1228,37
870,49	1265,85
870,66	1268,51
870,83	1273,02
871,00	1277,32
871,17	1238,00
871,34	1267,08
871,51	1181,88
871,68	1225,09
871,85	1272,61
872,02	1251,10
872,19	1205,02
872,36	1169,80
872,53	1246,80
872,70	1154,03
872,87	1166,93
873,04	1192,94
873,21	1185,98
873,38	1180,86
873,55	1145,84
873,72	1046,10
873,89	1126,38
874,06	1055,93
874,23	1111,43
874,40	1096,89
874,57	1044,26
874,74	1175,12
874,91	1077,85
875,08	1017,84
875,25	1115,32
875,42	1045,90
875,59	1088,29
875,76	1018,66
875,93	1074,57
876,10	1042,21
876,27	1055,32
876,44	1090,75
876,61	1026,44
876,78	1006,58
876,95	1053,07
877,12	1009,85
877,29	1004,32
877,46	952,92
877,62	1009,03
877,79	1049,79
877,96	1003,91
878,13	1032,38
878,30	1034,63
878,47	938,17
878,64	872,84
878,81	1066,58
878,98	923,43
879,15	1021,32
879,32	959,27
879,49	956,81
879,66	898,44
879,83	897,83
880,00	1005,14
880,17	982,41
880,34	914,21
880,51	949,85
880,67	902,95
880,84	856,05
881,01	888,61
881,18	890,66
881,35	902,95
881,52	985,69
881,69	855,23
881,86	890,05
882,03	915,24
882,20	915,85
882,37	949,64
882,54	870,39
882,70	833,32
882,87	886,57
883,04	844,99
883,21	899,67
883,38	902,95
883,55	824,92
883,72	884,72
883,89	830,45
884,06	822,87
884,23	954,76
884,39	879,81
884,56	805,88
884,73	857,48
884,90	927,73
885,07	882,88
885,24	911,96
885,41	848,88
885,58	827,38
885,74	956,20
885,91	809,56
886,08	815,91
886,25	801,78
886,42	792,97
886,59	854,82
886,76	758,36
886,93	780,07
887,09	720,07
887,26	804,85
887,43	781,91
887,60	751,81
887,77	770,24
887,94	786,62
888,10	639,17
888,27	749,35
888,44	786,01
888,61	752,83
888,78	775,36
888,95	732,56
889,12	675,83
889,28	772,90
889,45	776,18
889,62	744,03
889,79	702,86
889,96	776,59
890,13	721,09
890,29	726,62
890,46	677,88
890,63	674,60
890,80	678,29
890,97	665,79
891,13	657,19
891,30	754,68
891,47	694,26
891,64	634,87
891,81	721,29
891,98	641,83
892,14	697,95
892,31	683,82
892,48	668,05
892,65	623,40
892,82	617,46
892,98	634,46
893,15	596,37
893,32	650,84
>>>>>End Processed Spectral Data<<<<<
