SpectraSuite Datei
++++++++++++++++++++++++++++++++++++
Datum: Thu Mar 09 09:52:38 CET 2017
Benutzer: Admin
Dark-Spektrum vorhanden: Ja
Referenz-Spektrum vorhanden: Nein
Zahl der probierten Teilspektren: 1
Spektrometer: USB4F05832
Integrationszeit (usec): 100000 (USB4F05832)
Spektren Durchschnitt berechnet: 10 (USB4F05832)
Boxcar Glttung: 0 (USB4F05832)
Dunkelstromkorrektur: Nein (USB4F05832)
Puls/Lampe aktiviert: Nein (USB4F05832)
Correct for Detector Non-linearity: Nein (USB4F05832)
Streulichtkorrektur: Nein (USB4F05832)
Anzahl Pixel in verarbeitetem Spektrum: 3648
>>>>>Begin Processed Spectral Data<<<<<
177,54	-41,37
177,75	-41,37
177,97	-41,37
178,19	28,47
178,41	-53,04
178,63	14,95
178,85	-23,76
179,07	-80,89
179,29	2,66
179,51	47,72
179,73	35,23
179,95	34,41
180,17	18,43
180,39	54,89
180,61	17,41
180,83	15,77
181,05	3,28
181,27	113,87
181,49	25,39
181,71	61,23
181,92	10,85
182,14	86,83
182,36	47,92
182,58	55,50
182,80	25,19
183,02	23,55
183,24	-15,36
183,46	15,77
183,68	35,63
183,90	62,46
184,12	73,11
184,34	-30,11
184,56	50,18
184,78	62,26
185,00	-19,46
185,21	74,34
185,43	110,80
185,65	52,02
185,87	86,22
186,09	53,25
186,31	36,45
186,53	152,57
186,75	80,69
186,97	13,72
187,19	21,30
187,41	22,32
187,63	-37,07
187,84	-28,26
188,06	100,96
188,28	49,36
188,50	51,61
188,72	-20,89
188,94	48,54
189,16	25,80
189,38	52,63
189,60	5,73
189,82	81,30
190,03	53,25
190,25	-31,95
190,47	81,30
190,69	103,01
190,91	24,17
191,13	26,62
191,35	4,10
191,57	53,45
191,79	16,59
192,01	14,54
192,22	20,68
192,44	-18,64
192,66	84,99
192,88	66,97
193,10	81,30
193,32	39,73
193,54	-31,95
193,76	-15,97
193,98	42,19
194,19	26,42
194,41	10,24
194,63	-16,38
194,85	69,02
195,07	44,85
195,29	48,54
195,51	20,27
195,73	73,93
195,94	40,55
196,16	5,12
196,38	45,46
196,60	-11,06
196,82	64,72
197,04	2,25
197,26	65,94
197,48	28,26
197,69	35,02
197,91	21,09
198,13	67,99
198,35	35,02
198,57	48,54
198,79	3,28
199,01	-14,75
199,22	-46,90
199,44	65,13
199,66	-11,06
199,88	123,29
200,10	-19,05
200,32	82,12
200,54	34,00
200,75	20,89
200,97	31,74
201,19	-19,25
201,41	94,62
201,63	50,58
201,85	-4,71
202,06	76,18
202,28	13,93
202,50	26,42
202,72	-10,44
202,94	24,37
203,16	69,63
203,38	46,90
203,59	45,87
203,81	26,62
204,03	95,03
204,25	-37,27
204,47	-13,52
204,69	22,53
204,90	11,47
205,12	37,48
205,34	13,31
205,56	80,69
205,78	5,12
206,00	-2,05
206,21	23,96
206,43	4,51
206,65	35,43
206,87	47,51
207,09	44,65
207,30	107,72
207,52	21,30
207,74	-34,20
207,96	82,94
208,18	35,23
208,40	2,87
208,61	82,53
208,83	-8,81
209,05	65,33
209,27	-11,47
209,49	31,33
209,70	35,02
209,92	84,38
210,14	-31,33
210,36	28,67
210,58	-9,83
210,79	62,05
211,01	92,57
211,23	3,69
211,45	97,48
211,67	-7,37
211,88	37,07
212,10	88,27
212,32	-19,05
212,54	-19,05
212,76	17,61
212,97	19,87
213,19	53,45
213,41	140,49
213,63	100,76
213,85	13,93
214,06	44,44
214,28	12,70
214,50	63,28
214,72	114,07
214,94	35,43
215,15	76,80
215,37	31,13
215,59	111,00
215,81	72,91
216,02	38,91
216,24	54,07
216,46	44,24
216,68	103,42
216,90	-21,91
217,11	39,12
217,33	52,84
217,55	115,51
217,77	31,54
217,98	44,03
218,20	18,64
218,42	97,28
218,64	18,84
218,85	65,13
219,07	66,76
219,29	52,63
219,51	24,78
219,73	91,13
219,94	-14,34
220,16	32,36
220,38	52,84
220,60	58,98
220,81	25,60
221,03	32,97
221,25	76,80
221,47	81,71
221,68	8,19
221,90	39,53
222,12	79,26
222,34	61,85
222,55	67,17
222,77	124,72
222,99	59,39
223,21	40,96
223,42	82,12
223,64	98,51
223,86	21,09
224,08	58,78
224,29	79,26
224,51	75,57
224,73	1,64
224,94	-41,57
225,16	57,75
225,38	37,48
225,60	80,89
225,81	68,81
226,03	-24,99
226,25	67,38
226,47	34,20
226,68	54,48
226,90	19,05
227,12	3,69
227,33	33,59
227,55	90,93
227,77	9,01
227,99	112,43
228,20	82,53
228,42	3,69
228,64	23,96
228,86	41,78
229,07	-4,71
229,29	9,01
229,51	33,38
229,72	76,59
229,94	-22,73
230,16	73,73
230,38	-47,31
230,59	25,39
230,81	17,82
231,03	26,42
231,24	52,43
231,46	46,28
231,68	39,12
231,89	33,79
232,11	13,52
232,33	3,28
232,55	2,46
232,76	67,79
232,98	61,64
233,20	86,22
233,41	61,03
233,63	130,05
233,85	65,94
234,06	78,64
234,28	46,69
234,50	40,96
234,71	39,53
234,93	15,36
235,15	19,46
235,37	71,27
235,58	5,94
235,80	70,86
236,02	35,43
236,23	-10,85
236,45	7,78
236,67	66,15
236,88	18,64
237,10	17,20
237,32	87,04
237,53	117,76
237,75	38,91
237,97	-11,67
238,18	50,18
238,40	14,34
238,62	43,01
238,83	44,24
239,05	63,28
239,27	33,59
239,48	2,87
239,70	1,84
239,92	38,09
240,13	56,93
240,35	98,71
240,57	106,49
240,78	83,97
241,00	-9,01
241,22	68,20
241,43	23,96
241,65	37,89
241,87	38,71
242,08	24,78
242,30	70,25
242,52	109,77
242,73	141,92
242,95	18,43
243,16	45,26
243,38	122,88
243,60	26,21
243,81	88,68
244,03	4,92
244,25	-43,62
244,46	46,08
244,68	-19,46
244,90	-24,78
245,11	109,16
245,33	29,49
245,55	112,43
245,76	65,53
245,98	107,72
246,19	-11,06
246,41	55,09
246,63	76,59
246,84	32,15
247,06	-37,89
247,28	42,39
247,49	36,86
247,71	11,88
247,92	88,88
248,14	78,03
248,36	64,92
248,57	30,31
248,79	60,62
249,01	11,26
249,22	72,70
249,44	-17,20
249,65	18,02
249,87	-9,22
250,09	62,67
250,30	-10,04
250,52	69,43
250,73	26,21
250,95	32,97
251,17	24,37
251,38	53,66
251,60	71,47
251,81	80,69
252,03	39,12
252,25	69,84
252,46	52,43
252,68	67,17
252,89	-58,78
253,11	81,71
253,33	97,89
253,54	3,69
253,76	145,20
253,97	51,61
254,19	45,26
254,41	65,53
254,62	43,62
254,84	13,11
255,05	53,86
255,27	60,42
255,49	71,88
255,70	33,18
255,92	31,95
256,13	7,78
256,35	-22,32
256,56	92,57
256,78	32,15
257,00	68,40
257,21	-0,41
257,43	43,21
257,64	4,10
257,86	69,84
258,08	43,42
258,29	126,97
258,51	41,98
258,72	6,76
258,94	2,25
259,15	13,93
259,37	37,89
259,59	19,25
259,80	68,20
260,02	26,42
260,23	61,03
260,45	33,38
260,66	60,21
260,88	42,80
261,09	24,58
261,31	45,87
261,53	77,00
261,74	54,48
261,96	37,07
262,17	84,79
262,39	2,87
262,60	69,63
262,82	50,18
263,03	107,93
263,25	59,60
263,46	-34,41
263,68	32,15
263,90	44,03
264,11	107,11
264,33	-5,12
264,54	5,73
264,76	124,72
264,97	91,13
265,19	135,99
265,40	27,24
265,62	-13,72
265,83	121,85
266,05	28,06
266,26	17,61
266,48	26,42
266,70	-11,47
266,91	60,62
267,13	34,00
267,34	99,74
267,56	149,30
267,77	67,58
267,99	-23,14
268,20	68,81
268,42	129,43
268,63	88,47
268,85	66,76
269,06	73,93
269,28	-18,23
269,49	101,58
269,71	101,58
269,92	42,39
270,14	-7,17
270,35	128,20
270,57	80,69
270,78	13,93
271,00	-17,61
271,21	133,94
271,43	9,42
271,64	44,85
271,86	35,43
272,07	45,26
272,29	39,53
272,50	-35,02
272,72	23,55
272,93	2,66
273,15	-0,41
273,36	24,78
273,58	89,70
273,79	70,65
274,01	31,54
274,22	-36,25
274,44	94,82
274,65	-12,49
274,87	35,43
275,08	20,89
275,30	30,11
275,51	101,99
275,73	78,85
275,94	65,33
276,16	75,16
276,37	87,86
276,59	13,72
276,80	-1,64
277,02	72,29
277,23	80,69
277,45	30,11
277,66	38,71
277,88	20,48
278,09	97,69
278,30	68,81
278,52	49,56
278,73	82,74
278,95	-1,64
279,16	2,66
279,38	-6,96
279,59	78,64
279,81	53,25
280,02	83,15
280,24	68,61
280,45	44,03
280,67	13,72
280,88	-28,47
281,09	82,53
281,31	63,28
281,52	66,56
281,74	46,28
281,95	41,16
282,17	72,09
282,38	35,84
282,60	2,25
282,81	84,58
283,02	-27,85
283,24	72,29
283,45	73,73
283,67	10,24
283,88	51,81
284,10	49,56
284,31	64,92
284,53	157,69
284,74	65,94
284,95	36,04
285,17	15,77
285,38	6,35
285,60	31,74
285,81	25,80
286,03	57,96
286,24	81,71
286,45	126,36
286,67	59,39
286,88	45,67
287,10	67,17
287,31	101,58
287,53	57,14
287,74	169,16
287,95	94,62
288,17	38,50
288,38	5,32
288,60	64,10
288,81	87,45
289,02	68,40
289,24	51,61
289,45	53,45
289,67	91,54
289,88	36,25
290,10	103,83
290,31	57,34
290,52	73,32
290,74	68,81
290,95	0,82
291,17	96,46
291,38	91,13
291,59	107,72
291,81	32,97
292,02	30,31
292,24	5,32
292,45	75,16
292,66	13,52
292,88	39,53
293,09	50,18
293,31	94,00
293,52	37,07
293,73	8,40
293,95	100,76
294,16	28,88
294,37	30,11
294,59	-28,47
294,80	80,69
295,02	88,27
295,23	7,99
295,44	86,22
295,66	78,03
295,87	61,64
296,09	91,95
296,30	5,73
296,51	17,20
296,73	100,15
296,94	90,73
297,15	50,18
297,37	21,91
297,58	68,61
297,79	18,23
298,01	55,70
298,22	61,44
298,44	83,56
298,65	72,29
298,86	58,37
299,08	-4,10
299,29	90,73
299,50	-15,36
299,72	96,05
299,93	79,05
300,14	66,15
300,36	3,69
300,57	101,58
300,79	94,21
301,00	155,44
301,21	18,23
301,43	-0,82
301,64	141,11
301,85	-7,58
302,07	81,92
302,28	18,43
302,49	28,67
302,71	-0,41
302,92	65,54
303,13	24,78
303,35	43,62
303,56	90,52
303,77	31,95
303,99	52,63
304,20	62,67
304,41	30,92
304,63	98,92
304,84	-8,40
305,05	50,18
305,27	142,33
305,48	52,63
305,69	61,85
305,91	62,05
306,12	4,30
306,33	36,45
306,55	115,71
306,76	32,56
306,97	40,96
307,19	62,87
307,40	54,89
307,61	127,38
307,82	60,42
308,04	18,84
308,25	80,28
308,46	60,01
308,68	80,89
308,89	31,74
309,10	116,94
309,32	57,14
309,53	62,87
309,74	107,72
309,96	71,68
310,17	68,40
310,38	64,10
310,59	136,19
310,81	31,54
311,02	-1,02
311,23	49,77
311,45	66,76
311,66	80,49
311,87	94,62
312,09	97,07
312,30	115,51
312,51	32,36
312,72	71,68
312,94	69,43
313,15	20,89
313,36	29,70
313,58	78,85
313,79	69,02
314,00	43,42
314,21	76,39
314,43	69,84
314,64	71,88
314,85	98,51
315,06	69,63
315,28	77,41
315,49	23,96
315,70	103,42
315,92	73,73
316,13	110,18
316,34	89,50
316,55	71,47
316,77	68,40
316,98	88,47
317,19	114,07
317,40	88,27
317,62	31,13
317,83	94,62
318,04	103,42
318,25	117,96
318,47	92,98
318,68	172,85
318,89	141,51
319,11	38,50
319,32	157,08
319,53	134,96
319,74	153,80
319,96	123,49
320,17	99,33
320,38	90,11
320,59	156,26
320,81	116,73
321,02	144,79
321,23	85,40
321,44	121,65
321,65	180,63
321,87	193,12
322,08	121,03
322,29	162,20
322,50	110,59
322,72	92,98
322,93	196,61
323,14	129,64
323,35	156,67
323,57	174,08
323,78	141,72
323,99	186,77
324,20	202,95
324,41	144,38
324,63	114,28
324,84	292,45
325,05	194,76
325,26	150,53
325,48	235,31
325,69	275,04
325,90	280,16
326,11	213,19
326,32	191,08
326,54	265,21
326,75	333,82
326,96	306,58
327,17	317,23
327,39	294,91
327,60	337,71
327,81	318,46
328,02	298,18
328,23	344,47
328,45	426,80
328,66	407,55
328,87	494,38
329,08	382,97
329,29	412,67
329,51	512,61
329,72	504,82
329,93	587,15
330,14	534,32
330,35	552,34
330,56	531,65
330,78	533,91
330,99	607,84
331,20	611,93
331,41	596,16
331,62	664,77
331,84	683,00
332,05	753,86
332,26	776,79
332,47	784,17
332,68	770,86
332,90	843,56
333,11	914,83
333,32	911,55
333,53	914,01
333,74	1062,69
333,95	934,69
334,17	1022,55
334,38	994,70
334,59	1044,67
334,80	1128,43
335,01	1086,65
335,22	1188,23
335,44	1115,12
335,65	1161,81
335,86	1159,56
336,07	1146,86
336,28	1150,96
336,49	1253,15
336,71	1279,98
336,92	1350,64
337,13	1358,42
337,34	1440,75
337,55	1548,06
337,76	1653,33
337,97	1591,07
338,19	1722,55
338,40	1763,71
338,61	1806,72
338,82	1820,85
339,03	2013,77
339,24	1945,78
339,45	1985,71
339,67	2054,11
339,88	2182,93
340,09	2104,90
340,30	2171,46
340,51	2033,84
340,72	2270,38
340,93	2256,86
341,15	2420,90
341,36	2398,99
341,57	2551,36
341,78	2603,99
341,99	2603,79
342,20	2655,60
342,41	2739,77
342,62	2679,36
342,84	2666,25
343,05	2628,57
343,26	2574,50
343,47	2650,89
343,68	2536,20
343,89	2636,35
344,10	2770,08
344,31	2984,50
344,53	3074,82
344,74	3140,56
344,95	3198,72
345,16	3334,91
345,37	3296,21
345,58	3295,18
345,79	3521,69
346,00	3539,50
346,21	3630,43
346,42	3716,45
346,64	3646,41
346,85	3699,25
347,06	3754,13
347,27	3761,09
347,48	3990,47
347,69	3836,46
347,90	4069,72
348,11	3907,11
348,32	4040,64
348,53	4140,38
348,75	4310,16
348,96	4303,60
349,17	4701,11
349,38	4797,16
349,59	4815,80
349,80	5171,94
350,01	5114,19
350,22	5233,58
350,43	5028,79
350,64	5220,68
350,85	5190,78
351,06	5055,21
351,28	5232,76
351,49	5176,86
351,70	5306,08
351,91	5243,00
352,12	5369,57
352,33	5276,59
352,54	5749,26
352,75	5990,31
352,96	5919,24
353,17	6417,51
353,38	6288,70
353,59	6485,10
353,80	6681,09
354,01	6655,28
354,22	6642,59
354,44	6676,38
354,65	6532,61
354,86	6637,47
355,07	6562,72
355,28	6513,56
355,49	6380,86
355,70	6170,94
355,91	6050,31
356,12	5771,18
356,33	5726,53
356,54	5555,73
356,75	5612,87
356,96	5512,72
357,17	5391,89
357,38	5402,75
357,59	5156,99
357,80	5377,56
358,01	5776,71
358,22	5811,73
358,43	6344,20
358,64	6738,23
358,85	7138,40
359,07	7276,64
359,28	7598,78
359,49	7498,23
359,70	7355,07
359,91	7515,02
360,12	7228,72
360,33	7081,06
360,54	7152,33
360,75	7222,37
360,96	7236,50
361,17	7277,25
361,38	7668,62
361,59	7999,57
361,80	8307,38
362,01	8286,70
362,22	8403,43
362,43	8545,56
362,64	8678,47
362,85	8790,91
363,06	8678,47
363,27	8995,50
363,48	9058,37
363,69	9134,35
363,90	9193,33
364,11	9468,17
364,32	9648,60
364,53	10056,96
364,74	10426,82
364,95	10977,93
365,16	11035,48
365,37	11386,30
365,58	11454,90
365,79	11672,81
366,00	11593,14
366,21	11668,30
366,42	11332,23
366,63	11333,25
366,84	11237,41
367,05	10964,82
367,26	10943,32
367,47	10677,09
367,68	10646,98
367,89	10651,08
368,10	10268,92
368,31	9991,22
368,52	10560,97
368,73	11483,78
368,94	11422,34
369,15	11267,51
369,36	11569,79
369,57	11569,59
369,78	11464,32
369,99	11841,56
370,20	11968,74
370,40	12041,65
370,61	12237,43
370,82	12135,85
371,03	11843,40
371,24	12031,41
371,45	11784,42
371,66	11399,20
371,87	11034,05
372,08	11353,94
372,29	10858,54
372,50	10256,84
372,71	10439,32
372,92	10321,15
373,13	10103,45
373,34	10071,30
373,55	10214,45
373,76	10214,45
373,97	10090,75
374,18	10519,60
374,39	10907,28
374,60	11308,88
374,81	11634,51
375,01	11546,86
375,22	12030,18
375,43	12011,75
375,64	12451,65
375,85	12143,84
376,06	12564,49
376,27	12978,59
376,48	13586,63
376,69	13510,86
376,90	14330,66
377,11	14870,71
377,32	14596,08
377,53	14996,87
377,74	14859,04
377,94	14350,94
378,15	14083,06
378,36	13347,64
378,57	13227,01
378,78	12725,67
378,99	12928,62
379,20	12906,30
379,41	13158,40
379,62	13480,34
379,83	13717,50
380,04	13831,57
380,25	13785,08
380,45	13369,96
380,66	13039,42
380,87	12483,19
381,08	11786,06
381,29	11364,79
381,50	10548,88
381,71	10237,39
381,92	10097,10
382,13	9563,60
382,34	8855,21
382,55	8916,65
382,75	9020,89
382,96	9216,27
383,17	9727,03
383,38	10396,31
383,59	10997,39
383,80	11520,44
384,01	12026,49
384,22	12890,94
384,43	12730,58
384,63	12189,71
384,84	12709,49
385,05	12331,84
385,26	12644,77
385,47	12830,11
385,68	12929,03
385,89	13006,44
386,10	12944,60
386,30	13014,02
386,51	12690,44
386,72	13142,43
386,93	12898,72
387,14	12739,59
387,35	13198,75
387,56	12989,04
387,77	13042,69
387,97	13527,86
388,18	14121,77
388,39	14518,66
388,60	14963,89
388,81	15247,95
389,02	15893,47
389,23	16336,65
389,43	16188,58
389,64	16593,67
389,85	16526,70
390,06	16969,88
390,27	17611,30
390,48	17741,55
390,69	17474,50
390,89	17883,68
391,10	17063,27
391,31	16165,44
391,52	15495,96
391,73	14486,92
391,94	12999,69
392,14	11616,08
392,35	10675,45
392,56	10271,79
392,77	10177,38
392,98	10518,98
393,19	11041,01
393,39	12185,82
393,60	13073,00
393,81	14879,72
394,02	15321,26
394,23	16572,57
394,44	16977,87
394,64	17324,38
394,85	17882,25
395,06	16419,59
395,27	15570,50
395,48	14762,37
395,69	12986,37
395,89	12760,69
396,10	12607,30
396,31	12180,70
396,52	13394,74
396,73	14395,79
396,93	16175,47
397,14	16597,97
397,35	19233,09
397,56	19882,30
397,77	21243,58
397,97	22463,15
398,18	23589,73
398,39	22842,22
398,60	23871,53
398,81	23758,69
399,01	24819,33
399,22	24112,17
399,43	24649,15
399,64	24786,16
399,85	24753,18
400,05	25135,74
400,26	25197,80
400,47	25460,35
400,68	26157,68
400,89	25534,07
401,09	26853,17
401,30	26881,02
401,51	26433,54
401,72	26136,79
401,93	26723,33
402,13	26562,56
402,34	25964,97
402,55	26114,06
402,76	26067,16
402,96	26227,31
403,17	25270,91
403,38	25783,72
403,59	25094,99
403,80	26646,12
404,00	25486,97
404,21	25133,70
404,42	26323,57
404,63	26019,65
404,83	25927,49
405,04	24336,42
405,25	25051,98
405,46	24763,83
405,66	24241,81
405,87	24854,56
406,08	24879,13
406,29	25584,45
406,49	25072,46
406,70	25117,72
406,91	24755,64
407,12	26577,10
407,32	25745,63
407,53	27160,98
407,74	27184,94
407,95	26343,43
408,15	27318,06
408,36	26850,51
408,57	26710,22
408,78	26304,11
408,98	25875,88
409,19	24635,84
409,40	25750,95
409,61	24784,52
409,81	25250,02
410,02	25901,68
410,23	26347,32
410,44	27662,53
410,64	27608,67
410,85	27392,61
411,06	28023,38
411,26	27673,79
411,47	28027,07
411,68	28176,16
411,89	26686,26
412,09	27726,83
412,30	27351,65
412,51	26534,10
412,72	26864,64
412,92	28008,84
413,13	27609,08
413,34	27192,31
413,54	27242,90
413,75	27360,66
413,96	27227,74
414,17	26616,84
414,37	27220,99
414,58	26938,37
414,79	27753,46
414,99	27059,40
415,20	27744,45
415,41	27945,35
415,61	28308,66
415,82	27927,95
416,03	26695,68
416,24	26963,35
416,44	27202,35
416,65	26877,75
416,86	27231,64
417,06	26473,48
417,27	26142,53
417,48	26002,04
417,68	26941,64
417,89	27139,68
418,10	26074,33
418,30	26758,15
418,51	26225,88
418,72	26175,09
418,92	27630,17
419,13	25893,29
419,34	26628,71
419,55	26800,95
419,75	27360,45
419,96	27327,69
420,17	28528,61
420,37	28245,79
420,58	27028,27
420,79	26856,24
420,99	27979,76
421,20	28003,72
421,41	27051,82
421,61	26866,48
421,82	25419,59
422,03	26597,38
422,23	25752,39
422,44	26628,51
422,65	26738,48
422,85	26459,35
423,06	26666,60
423,26	27249,86
423,47	28008,84
423,68	26617,45
423,88	27451,59
424,09	26824,70
424,30	26953,93
424,50	27185,15
424,71	27193,75
424,92	26807,91
425,12	26436,82
425,33	27728,88
425,54	27638,57
425,74	27434,59
425,95	26341,18
426,15	27494,39
426,36	25345,87
426,57	26800,74
426,77	25729,86
426,98	26598,20
427,19	26152,77
427,39	26800,13
427,60	25650,81
427,81	25939,57
428,01	25459,32
428,22	26816,31
428,42	24020,42
428,63	24492,27
428,84	23695,20
429,04	22474,41
429,25	21713,59
429,45	20570,62
429,66	20825,59
429,87	21144,25
430,07	21101,25
430,28	21959,96
430,49	22945,24
430,69	24945,28
430,90	25344,84
431,10	25861,34
431,31	26430,68
431,52	27843,98
431,72	27072,92
431,93	26949,63
432,13	28242,51
432,34	28640,02
432,55	27342,64
432,75	28259,92
432,96	27573,03
433,16	27062,27
433,37	27201,12
433,58	28084,82
433,78	27962,35
433,99	26267,25
434,19	28129,06
434,40	28618,11
434,60	29406,78
434,81	29491,16
435,02	29649,06
435,22	30649,08
435,43	29889,90
435,63	30158,59
435,84	31100,25
436,05	31138,96
436,25	29233,53
436,46	30611,60
436,66	30110,67
436,87	29606,26
437,07	28362,52
437,28	27752,23
437,48	28044,47
437,69	27115,52
437,90	27645,12
438,10	27717,21
438,31	27864,05
438,51	29497,71
438,72	28612,79
438,92	28855,27
439,13	28989,00
439,34	28754,10
439,54	28944,97
439,75	28743,24
439,95	28845,84
440,16	29968,95
440,36	30206,92
440,57	30274,71
440,77	31180,94
440,98	30514,73
441,18	30646,42
441,39	30970,82
441,60	32194,07
441,80	31624,32
442,01	30174,57
442,21	31797,38
442,42	30553,65
442,62	31010,55
442,83	31178,89
443,03	31503,49
443,24	31155,75
443,44	31274,94
443,65	31737,37
443,85	31206,13
444,06	31148,99
444,26	31250,98
444,47	30046,36
444,67	30943,37
444,88	29852,22
445,09	29244,58
445,29	30136,47
445,50	29799,17
445,70	29636,16
445,91	30660,14
446,11	30217,78
446,32	31210,84
446,52	31693,14
446,73	31460,90
446,93	32228,68
447,14	31868,03
447,34	32313,87
447,55	31078,95
447,75	32202,47
447,96	32708,31
448,16	31698,05
448,37	32180,14
448,57	31833,63
448,78	32567,41
448,98	32444,33
449,19	32600,80
449,39	33717,76
449,60	33261,88
449,80	34452,36
450,01	34494,14
450,21	33935,66
450,42	34173,02
450,62	33674,75
450,83	33546,55
451,03	32956,53
451,23	33186,10
451,44	32633,77
451,64	32729,20
451,85	31635,18
452,05	32088,80
452,26	31865,37
452,46	31371,81
452,67	31560,02
452,87	31365,26
453,08	32042,93
453,28	30884,60
453,49	32800,88
453,69	31796,76
453,90	32023,68
454,10	32379,41
454,31	32306,30
454,51	32151,27
454,71	32414,63
454,92	32261,86
455,12	32442,08
455,33	33498,42
455,53	33994,03
455,74	35073,51
455,94	35299,81
456,15	35899,25
456,35	37223,27
456,55	36304,34
456,76	36789,51
456,96	38052,28
457,17	35108,12
457,37	38562,43
457,58	36720,08
457,78	38002,52
457,99	36932,66
458,19	35121,23
458,39	36780,09
458,60	38359,89
458,80	37559,54
459,01	36938,19
459,21	36561,36
459,42	38270,60
459,62	36383,19
459,82	39589,08
460,03	39080,36
460,23	39261,81
460,44	39308,51
460,64	37042,63
460,85	40577,63
461,05	38320,98
461,25	38347,40
461,46	41084,30
461,66	40108,44
461,87	39366,67
462,07	39467,43
462,27	38120,48
462,48	37888,86
462,68	39089,99
462,89	38604,01
463,09	37322,39
463,29	38883,55
463,50	37915,07
463,70	38740,20
463,91	37192,34
464,11	37309,08
464,31	38220,42
464,52	38645,99
464,72	39766,84
464,93	39238,88
465,13	39952,80
465,33	38538,06
465,54	38030,17
465,74	37584,12
465,95	38663,81
466,15	38251,35
466,35	39195,05
466,56	39229,46
466,76	39623,08
466,96	39100,23
467,17	39316,08
467,37	39549,14
467,58	39540,95
467,78	39820,91
467,98	40659,55
468,19	39929,04
468,39	41207,38
468,59	41172,16
468,80	39945,22
469,00	39731,82
469,21	39556,93
469,41	39478,08
469,61	40868,24
469,82	39192,18
470,02	40902,65
470,22	42047,87
470,43	41550,62
470,63	41261,86
470,83	44254,35
471,04	43069,40
471,24	43234,26
471,45	43153,16
471,65	44014,94
471,85	42913,96
472,06	43930,36
472,26	43534,90
472,46	43689,93
472,67	44431,50
472,87	44370,68
473,07	44448,91
473,28	44231,41
473,48	45701,04
473,68	45718,44
473,89	45912,39
474,09	46184,56
474,29	45790,74
474,50	46555,86
474,70	46031,17
474,90	46627,13
475,11	46556,27
475,31	46368,88
475,51	45850,13
475,72	46009,46
475,92	45820,64
476,12	45463,27
476,33	47610,36
476,53	47925,34
476,73	48339,84
476,93	49215,56
477,14	48768,08
477,34	48603,62
477,54	49223,13
477,75	49610,00
477,95	49833,22
478,15	50095,98
478,36	50810,31
478,56	51170,55
478,76	51817,09
478,97	52262,32
479,17	51414,26
479,37	51440,06
479,57	51877,71
479,78	52061,82
479,98	52484,32
480,18	53277,29
480,39	53726,21
480,59	54646,36
480,79	54349,81
480,99	54589,22
481,20	55077,66
481,40	54746,71
481,60	55018,89
481,81	54379,51
482,01	54746,92
482,21	54738,72
482,41	55045,92
482,62	54594,75
482,82	54897,24
483,02	55884,97
483,23	55323,21
483,43	55730,76
483,63	54939,01
483,83	55118,62
484,04	56008,46
484,24	54649,23
484,44	54322,37
484,64	52351,82
484,85	51165,84
485,05	50330,88
485,25	49771,17
485,45	49116,23
485,66	49521,32
485,86	49629,66
486,06	50416,08
486,26	51381,69
486,47	52086,81
486,67	53345,90
486,87	54049,58
487,07	54828,63
487,28	54561,57
487,48	54839,89
487,68	56275,11
487,88	55895,83
488,09	56407,41
488,29	56317,30
488,49	57695,99
488,69	58083,67
488,90	59005,67
489,10	58632,73
489,30	58955,08
489,50	59110,93
489,71	59659,99
489,91	59809,08
490,11	59578,89
490,31	58995,43
490,52	58764,01
490,72	58061,96
490,92	58374,28
491,12	57664,25
491,32	57613,05
491,53	58082,24
491,73	58185,66
491,93	59141,04
492,13	59275,38
492,33	59235,24
492,54	58376,94
492,74	59508,85
492,94	59111,55
493,14	59888,34
493,35	60070,20
493,55	60633,60
493,75	61171,60
493,95	60957,38
494,15	60827,95
494,36	61642,02
494,56	60693,81
494,76	60983,80
494,96	60910,07
495,16	61157,26
495,37	60915,19
495,57	61371,68
495,77	61100,94
495,97	61184,30
496,17	62056,32
496,37	61162,38
496,58	61671,92
496,78	60185,91
496,98	60549,63
497,18	59676,79
497,38	59754,40
497,59	59495,13
497,79	59173,80
497,99	59448,44
498,19	59812,36
498,39	59398,26
498,59	60081,05
498,80	59574,80
499,00	59285,42
499,20	58917,81
499,40	57983,32
499,60	58057,87
499,80	57801,67
500,01	57447,16
500,21	56856,73
500,41	56661,15
500,61	56482,77
500,81	55713,97
501,01	56187,25
501,22	55726,25
501,42	56061,92
501,62	56174,96
501,82	55953,99
502,02	56113,93
502,22	55846,67
502,42	55507,53
502,63	55324,65
502,83	54309,67
503,03	53953,12
503,23	53968,07
503,43	53323,99
503,63	53591,04
503,83	54292,68
504,04	53613,57
504,24	54354,73
504,44	54402,24
504,64	55158,56
504,84	55400,83
505,04	55201,15
505,24	55877,80
505,44	55841,55
505,65	55276,72
505,85	55213,85
506,05	54919,56
506,25	54496,24
506,45	53694,87
506,65	53594,93
506,85	53714,33
507,05	53535,54
507,26	53241,45
507,46	53302,07
507,66	53980,97
507,86	53980,36
508,06	54881,47
508,26	54688,75
508,46	54514,06
508,66	54810,81
508,86	55032,20
509,06	55174,53
509,27	55219,79
509,47	55306,62
509,67	55315,23
509,87	55563,03
510,07	55928,39
510,27	56658,08
510,47	56798,57
510,67	56997,84
510,87	56974,49
511,07	57294,38
511,28	57028,76
511,48	55919,99
511,68	56451,03
511,88	56365,83
512,08	55983,48
512,28	56083,62
512,48	55454,49
512,68	55660,72
512,88	55224,71
513,08	55320,35
513,28	54909,73
513,48	54992,26
513,68	55439,13
513,89	55272,63
514,09	55014,99
514,29	56115,16
514,49	55863,47
514,69	55925,93
514,89	56144,45
515,09	55768,24
515,29	55344,92
515,49	54122,08
515,69	52597,78
515,89	51788,21
516,09	51267,01
516,29	50960,84
516,49	50959,40
516,69	51592,84
516,89	51538,36
517,09	51784,32
517,29	51680,08
517,50	51611,47
517,70	51860,71
517,90	52241,23
518,10	52584,06
518,30	54350,63
518,50	53701,22
518,70	54850,75
518,90	56145,27
519,10	56421,95
519,30	56659,92
519,50	56721,57
519,70	57109,04
519,90	57035,52
520,10	57623,08
520,30	57377,53
520,50	57688,62
520,70	58285,19
520,90	57819,89
521,10	58081,83
521,30	57980,66
521,50	58307,10
521,70	57833,20
521,90	57605,47
522,10	57688,41
522,30	57013,81
522,50	57592,98
522,70	57808,63
522,90	58662,43
523,10	58528,49
523,30	59394,98
523,50	59002,39
523,70	59494,52
523,90	59487,55
524,10	59544,08
524,30	59102,13
524,50	59349,72
524,70	59567,22
524,90	59092,50
525,10	58807,01
525,30	57616,53
525,50	56940,90
525,70	56139,33
525,90	54921,81
526,10	54663,15
526,30	55236,99
526,50	55314,00
526,70	55905,04
526,90	56234,56
527,10	56456,35
527,30	57173,14
527,50	58204,50
527,70	58430,19
527,90	59149,43
528,10	59187,94
528,30	59762,60
528,50	59745,60
528,70	59286,44
528,90	59691,94
529,10	59492,47
529,30	59212,92
529,50	59904,11
529,70	59807,45
529,90	60074,71
530,10	60533,86
530,29	60028,63
530,49	60390,50
530,69	60639,95
530,89	60115,26
531,09	59311,43
531,29	58619,42
531,49	58252,01
531,69	57516,59
531,89	57090,20
532,09	57113,34
532,29	57007,87
532,49	57086,31
532,69	57534,00
532,89	57481,57
533,09	57324,49
533,29	57876,83
533,49	57692,71
533,68	57824,60
533,88	58819,92
534,08	58653,21
534,28	58839,37
534,48	59219,68
534,68	59514,79
534,88	59218,04
535,08	59734,13
535,28	59450,28
535,48	59125,27
535,68	58409,50
535,88	58124,22
536,08	58001,55
536,27	57930,89
536,47	57548,33
536,67	58218,02
536,87	58272,29
537,07	57818,46
537,27	58282,32
537,47	57907,75
537,67	57695,99
537,87	57898,53
538,07	58184,02
538,27	57210,42
538,46	57106,58
538,66	56415,80
538,86	55756,36
539,06	55944,36
539,26	55237,40
539,46	54582,26
539,66	54339,16
539,86	54154,44
540,06	54158,53
540,25	53833,52
540,45	53989,37
540,65	54053,27
540,85	54773,74
541,05	54784,39
541,25	54679,54
541,45	54820,64
541,65	54568,33
541,85	54549,49
542,04	54469,21
542,24	54379,10
542,44	54441,97
542,64	54667,04
542,84	54694,90
543,04	54904,81
543,24	54817,16
543,43	55171,05
543,63	55081,35
543,83	54882,08
544,03	54609,70
544,23	54731,76
544,43	54674,83
544,63	54697,56
544,82	54909,11
545,02	54203,59
545,22	54710,05
545,42	53873,46
545,62	54676,06
545,82	54536,18
546,02	54216,29
546,21	53953,33
546,41	53751,81
546,61	53209,91
546,81	53621,15
547,01	52815,48
547,21	53224,46
547,40	52971,53
547,60	53030,10
547,80	52909,68
548,00	53468,78
548,20	53459,77
548,40	53198,65
548,59	53350,41
548,79	53195,17
548,99	53606,81
549,19	53168,96
549,39	52833,29
549,59	53104,85
549,78	52358,78
549,98	52738,88
550,18	52535,52
550,38	52362,26
550,58	52420,63
550,77	52656,35
550,97	52889,61
551,17	52372,09
551,37	52793,15
551,57	52165,86
551,76	52190,03
551,96	51672,30
552,16	51448,66
552,36	51950,21
552,56	51711,21
552,75	52052,20
552,95	51937,72
553,15	52185,93
553,35	51754,83
553,55	51528,33
553,74	52202,31
553,94	51633,59
554,14	51813,61
554,34	51593,86
554,54	51564,99
554,73	51885,70
554,93	51698,51
555,13	51435,14
555,33	50918,85
555,53	50914,96
555,72	50328,22
555,92	50049,08
556,12	49895,28
556,32	49405,61
556,51	49454,96
556,71	49641,74
556,91	49237,47
557,11	49251,40
557,30	49175,42
557,50	48728,96
557,70	48099,00
557,90	48152,66
558,10	47681,42
558,29	47139,94
558,49	47534,99
558,69	47107,38
558,89	46887,83
559,08	47212,23
559,28	47306,85
559,48	47128,06
559,68	47583,12
559,87	47831,54
560,07	48026,10
560,27	48034,90
560,47	47757,40
560,66	47746,96
560,86	47242,95
561,06	46788,71
561,25	47315,45
561,45	47183,97
561,65	47317,09
561,85	46887,83
562,04	47110,04
562,24	47034,26
562,44	47304,39
562,64	46839,91
562,83	46811,04
563,03	46662,76
563,23	46668,09
563,42	46439,94
563,62	46953,17
563,82	46262,59
564,02	46704,75
564,21	46293,72
564,41	45999,02
564,61	45781,52
564,80	45513,03
565,00	45103,85
565,20	44950,87
565,40	44866,49
565,59	44922,81
565,79	45179,21
565,99	45256,63
566,18	45243,11
566,38	45095,45
566,58	44938,99
566,78	45014,35
566,97	44894,14
567,17	44553,15
567,37	44231,01
567,56	43726,39
567,76	43154,59
567,96	43079,84
568,15	42640,76
568,35	42564,57
568,55	42760,56
568,74	42310,83
568,94	42468,32
569,14	42168,09
569,33	41709,14
569,53	41487,14
569,73	41631,72
569,92	41031,05
570,12	40991,73
570,32	41034,33
570,52	40764,20
570,71	41038,84
570,91	40909,40
571,11	41515,60
571,30	41265,14
571,50	41518,47
571,70	41752,55
571,89	41422,42
572,09	41682,51
572,28	41740,06
572,48	41647,29
572,68	41712,21
572,87	41892,63
573,07	41862,32
573,27	41303,64
573,46	41564,96
573,66	41406,86
573,86	40918,21
574,05	41172,36
574,25	40643,58
574,45	40381,64
574,64	40383,69
574,84	40261,22
575,04	39983,52
575,23	40396,39
575,43	40417,28
575,62	40575,79
575,82	40196,71
576,02	40003,18
576,21	40284,16
576,41	40525,00
576,61	40309,76
576,80	39969,18
577,00	39841,80
577,19	39621,03
577,39	39766,84
577,59	39681,65
577,78	39563,68
577,98	39654,82
578,18	39461,29
578,37	39782,41
578,57	40025,09
578,76	40142,44
578,96	40074,86
579,16	40489,37
579,35	40918,83
579,55	40386,76
579,74	40497,35
579,94	40856,16
580,14	41056,04
580,33	41388,63
580,53	41500,65
580,72	41321,05
580,92	41542,43
581,12	41561,07
581,31	41947,11
581,51	42057,70
581,70	41938,71
581,90	42256,15
582,10	42082,28
582,29	42630,31
582,49	42358,55
582,68	42560,89
582,88	42646,08
583,07	42513,17
583,27	42489,41
583,47	42582,80
583,66	42732,92
583,86	42298,34
584,05	42202,70
584,25	41936,87
584,44	41966,98
584,64	41407,27
584,84	41482,02
585,03	40961,63
585,23	40923,74
585,42	41195,92
585,62	40754,78
585,81	41043,14
586,01	40877,25
586,20	40855,54
586,40	40759,90
586,60	39988,64
586,79	40204,70
586,99	39550,99
587,18	38996,19
587,38	38459,21
587,57	37236,99
587,77	36325,44
587,96	35331,35
588,16	34221,15
588,35	33483,47
588,55	32871,13
588,75	32385,55
588,94	32448,22
589,14	32559,43
589,33	32722,24
589,53	33662,46
589,72	33323,52
589,92	34355,49
590,11	34028,84
590,31	34381,30
590,50	34558,45
590,70	34236,71
590,89	34596,34
591,09	34295,08
591,28	34231,39
591,48	34610,06
591,67	34381,30
591,87	34901,28
592,06	35101,57
592,26	35592,26
592,45	35416,75
592,65	35778,63
592,84	35541,68
593,04	35453,41
593,23	34895,13
593,43	34821,41
593,62	34140,05
593,82	33887,12
594,01	33851,90
594,21	34248,59
594,40	34146,40
594,60	34135,54
594,79	34750,75
594,99	34584,25
595,18	35142,94
595,38	35109,56
595,57	35165,26
595,77	35553,35
595,96	35405,08
596,16	35521,40
596,35	35328,89
596,55	35147,65
596,74	35282,00
596,94	35247,79
597,13	35285,89
597,33	35358,79
597,52	35132,70
597,72	35370,06
597,91	35459,76
598,11	35377,64
598,30	35471,84
598,50	35777,60
598,69	35517,92
598,88	35661,89
599,08	35461,40
599,27	35798,08
599,47	35532,26
599,66	35818,15
599,86	35684,63
600,05	35786,21
600,25	35831,26
600,44	35350,60
600,64	35531,85
600,83	35368,42
601,02	35480,03
601,22	35263,36
601,41	35133,52
601,61	35564,21
601,80	35315,38
602,00	35690,57
602,19	35499,49
602,38	35614,79
602,58	35561,34
602,77	35759,38
602,97	35912,57
603,16	36170,61
603,36	35618,07
603,55	36085,41
603,74	35533,69
603,94	35827,37
604,13	35792,35
604,33	35761,63
604,52	35537,17
604,72	35403,24
604,91	35237,76
605,10	35520,38
605,30	35064,50
605,49	35038,08
605,69	35167,72
605,88	34652,45
606,07	35096,25
606,27	35138,23
606,46	34783,32
606,66	34732,12
606,85	34191,66
607,04	34332,15
607,24	34093,97
607,43	34263,34
607,63	33762,61
607,82	33784,11
608,01	34004,68
608,21	33708,13
608,40	33865,42
608,60	33331,10
608,79	33332,94
608,98	32848,60
609,18	33427,77
609,37	32851,88
609,57	32526,66
609,76	32824,84
609,95	32873,58
610,15	32957,55
610,34	33015,71
610,53	33073,67
610,73	32617,38
610,92	32736,99
611,11	32631,11
611,31	32639,50
611,50	32421,80
611,70	32488,57
611,89	32518,67
612,08	32431,84
612,28	32452,73
612,47	32365,48
612,66	31995,83
612,86	31984,77
613,05	31747,82
613,24	31730,82
613,44	31838,34
613,63	31939,92
613,82	32157,41
614,02	32106,21
614,21	31849,81
614,41	32032,28
614,60	32173,38
614,79	31752,53
614,99	31690,27
615,18	31744,13
615,37	31317,95
615,57	31714,02
615,76	31235,21
615,95	31249,75
616,15	31194,66
616,34	31487,11
616,53	31677,57
616,73	31963,67
616,92	31905,31
617,11	31951,79
617,30	32034,74
617,50	32110,51
617,69	32259,81
617,88	32450,88
618,08	32318,79
618,27	32499,42
618,46	32365,28
618,66	32509,66
618,85	32574,17
619,04	32588,30
619,24	32967,38
619,43	33013,05
619,62	32921,30
619,82	33094,36
620,01	32963,90
620,20	33197,98
620,39	32725,72
620,59	32786,14
620,78	32687,63
620,97	32765,04
621,17	32669,20
621,36	32890,79
621,55	32581,75
621,74	32690,29
621,94	32381,46
622,13	32580,73
622,32	32243,02
622,52	32285,20
622,71	32262,88
622,90	32056,24
623,09	31897,11
623,29	32041,09
623,48	31793,49
623,67	31912,68
623,86	31636,41
624,06	31469,29
624,25	31613,67
624,44	31324,09
624,64	31262,24
624,83	31061,34
625,02	30810,26
625,21	30835,45
625,41	31111,31
625,60	31091,24
625,79	30930,68
625,98	31006,86
626,18	31190,77
626,37	30382,64
626,56	29913,25
626,75	29803,68
626,95	28917,73
627,14	28619,95
627,33	28618,11
627,52	28512,64
627,72	28378,09
627,91	28554,42
628,10	28658,05
628,29	28471,48
628,49	28372,97
628,68	28286,34
628,87	28384,03
629,06	28521,65
629,25	28559,54
629,45	28313,78
629,64	28558,11
629,83	28858,54
630,02	28800,17
630,22	28722,56
630,41	28819,22
630,60	28753,89
630,79	28411,27
630,98	28356,18
631,18	28328,94
631,37	28435,23
631,56	28711,29
631,75	28969,95
631,94	29042,86
632,14	29069,07
632,33	29069,28
632,52	29191,95
632,71	28945,58
632,90	29215,30
633,10	29113,10
633,29	29034,87
633,48	29054,53
633,67	29013,16
633,86	29293,33
634,06	29292,92
634,25	29185,40
634,44	29342,89
634,63	29093,44
634,82	29406,99
635,02	28956,64
635,21	29088,32
635,40	29220,21
635,59	29148,33
635,78	29095,90
635,97	29133,79
636,17	29026,27
636,36	29530,69
636,55	29222,88
636,74	29694,73
636,93	29220,42
637,12	29612,19
637,32	29850,99
637,51	29464,33
637,70	29289,23
637,89	29551,17
638,08	29525,98
638,27	29526,18
638,47	29233,32
638,66	29308,28
638,85	28950,29
639,04	29154,68
639,23	28702,90
639,42	28798,95
639,62	28836,01
639,81	28695,73
640,00	28746,93
640,19	28268,52
640,38	28497,28
640,57	28528,41
640,76	28312,14
640,95	28283,68
641,15	28387,92
641,34	28296,58
641,53	28206,67
641,72	28222,44
641,91	28336,51
642,10	28298,22
642,29	28270,37
642,49	28248,04
642,68	28033,83
642,87	28176,36
643,06	28223,67
643,25	28094,04
643,44	28029,32
643,63	27996,55
643,82	27839,06
644,01	28022,77
644,21	27917,71
644,40	27527,36
644,59	27189,86
644,78	27363,12
644,97	26845,39
645,16	26757,94
645,35	26311,89
645,54	26444,19
645,73	25961,49
645,92	25944,49
646,12	25502,74
646,31	25185,71
646,50	24895,93
646,69	24959,00
646,88	24564,57
647,07	24433,09
647,26	24089,23
647,45	24069,78
647,64	24051,55
647,83	24195,11
648,02	23976,39
648,22	23839,79
648,41	23724,90
648,60	23543,86
648,79	23707,49
648,98	23989,29
649,17	23964,10
649,36	24450,70
649,55	24566,20
649,74	24615,15
649,93	24717,96
650,12	25078,40
650,31	24674,13
650,50	24330,69
650,69	24298,74
650,88	24343,79
651,08	23742,51
651,27	24097,83
651,46	24024,11
651,65	24116,88
651,84	24104,39
652,03	24430,63
652,22	24424,28
652,41	24401,55
652,60	24510,70
652,79	24604,71
652,98	24451,31
653,17	24465,24
653,36	24444,76
653,55	24137,77
653,74	24101,32
653,93	24014,89
654,12	23538,74
654,31	23613,08
654,50	23343,57
654,69	22799,42
654,88	22460,07
655,07	21875,99
655,26	21091,42
655,45	20942,32
655,64	20605,64
655,83	20536,21
656,02	20574,51
656,21	20877,40
656,40	21001,71
656,59	21385,71
656,78	21658,09
656,97	22143,25
657,17	22330,03
657,36	22498,78
657,55	22348,05
657,74	22977,59
657,93	22945,44
658,12	23179,52
658,31	23246,49
658,50	23500,85
658,69	23279,88
658,87	23748,25
659,06	23503,92
659,25	23750,29
659,44	23770,16
659,63	23861,91
659,82	23906,55
660,01	23837,13
660,20	23934,00
660,39	24057,28
660,58	23941,78
660,77	24062,61
660,96	24217,23
661,15	23908,19
661,34	24124,05
661,53	24035,99
661,72	24042,13
661,91	24058,10
662,10	23866,41
662,29	23848,39
662,48	23501,87
662,67	23906,35
662,86	23636,63
663,05	23490,00
663,24	23539,97
663,43	23436,75
663,62	23385,96
663,81	23400,71
664,00	23493,89
664,19	23395,38
664,38	23449,86
664,57	23428,76
664,76	23509,04
664,94	23333,74
665,13	23081,63
665,32	23142,05
665,51	23280,69
665,70	22962,85
665,89	22971,04
666,08	22803,31
666,27	23021,63
666,46	22876,02
666,65	22687,60
666,84	22651,76
667,03	22720,17
667,22	22588,07
667,41	22492,23
667,60	22536,87
667,78	22543,22
667,97	22572,92
668,16	22521,51
668,35	22475,43
668,54	22194,45
668,73	22212,47
668,92	22237,87
669,11	22147,35
669,30	22037,17
669,49	22068,30
669,68	22050,48
669,86	21906,92
670,05	21881,52
670,24	21797,76
670,43	21643,75
670,62	21675,50
670,81	21643,34
671,00	21433,63
671,19	21356,63
671,38	21221,67
671,57	21343,11
671,75	21299,90
671,94	21233,54
672,13	21341,68
672,32	21331,44
672,51	21208,15
672,70	21221,05
672,89	21056,60
673,08	21087,73
673,26	21259,14
673,45	20937,61
673,64	21062,13
673,83	20982,46
674,02	20874,95
674,21	20816,78
674,40	20973,66
674,59	20941,09
674,77	20905,87
674,96	20742,24
675,15	20749,81
675,34	20715,00
675,53	20557,92
675,72	20396,95
675,91	20564,68
676,09	20409,44
676,28	20406,78
676,47	20292,09
676,66	20303,77
676,85	20396,74
677,04	20500,37
677,22	20367,66
677,41	20179,25
677,60	20227,17
677,79	20145,05
677,98	19949,88
678,17	19949,88
678,36	20044,29
678,54	19994,93
678,73	19918,75
678,92	19944,14
679,11	19781,13
679,30	19717,84
679,48	19865,30
679,67	19626,50
679,86	19734,84
680,05	19513,66
680,24	19520,62
680,43	19424,37
680,61	19280,81
680,80	19359,04
680,99	19313,57
681,18	19272,00
681,37	19039,76
681,55	19168,17
681,74	18944,33
681,93	19155,47
682,12	19062,49
682,31	18960,71
682,49	18806,70
682,68	18545,79
682,87	18789,91
683,06	18704,71
683,25	18481,07
683,43	18513,23
683,62	18283,86
683,81	18542,72
684,00	18336,28
684,19	18221,60
684,37	18202,96
684,56	18156,06
684,75	18090,53
684,94	18018,03
685,12	17938,16
685,31	17699,77
685,50	17284,86
685,69	16471,20
685,88	15507,01
686,06	14378,38
686,25	13390,64
686,44	12508,99
686,63	11969,56
686,81	11814,53
687,00	11716,02
687,19	11882,72
687,38	12034,89
687,56	12138,11
687,75	12101,65
687,94	12250,13
688,13	12057,42
688,31	12093,67
688,50	11857,33
688,69	12159,40
688,88	12190,33
689,06	12308,50
689,25	12488,51
689,44	12669,96
689,63	12761,51
689,81	13090,00
690,00	13080,99
690,19	13350,30
690,38	13413,99
690,56	13600,56
690,75	13863,31
690,94	13831,78
691,13	14055,41
691,31	14065,45
691,50	13971,86
691,69	13964,89
691,87	13921,07
692,06	13821,54
692,25	13764,40
692,44	13552,84
692,62	13379,99
692,81	13174,38
693,00	13161,27
693,18	13133,01
693,37	13046,79
693,56	12932,72
693,75	12879,88
693,93	12964,05
694,12	12981,66
694,31	12964,67
694,49	12853,26
694,68	13155,13
694,87	12972,04
695,05	13316,30
695,24	13376,92
695,43	13507,99
695,62	13648,28
695,80	13873,55
695,99	14079,17
696,18	14179,52
696,36	14415,65
696,55	14356,06
696,74	14552,66
696,92	14419,95
697,11	14397,22
697,30	14292,77
697,48	14223,55
697,67	14186,28
697,86	13976,16
698,04	13796,76
698,23	13450,03
698,42	13377,33
698,60	13212,27
698,79	13199,57
698,98	13040,44
699,16	12912,85
699,35	12899,95
699,54	12817,42
699,72	12608,52
699,91	12655,22
700,10	12657,27
700,28	12510,43
700,47	12401,07
700,66	12558,55
700,84	12419,29
701,03	12463,73
701,21	12337,17
701,40	12583,95
701,59	12315,87
701,77	12378,95
701,96	12432,60
702,15	12604,84
702,33	12811,07
702,52	12947,87
702,71	13023,85
702,89	13128,91
703,08	13054,16
703,26	13079,35
703,45	13273,30
703,64	13283,53
703,82	13248,92
704,01	13238,48
704,20	13095,94
704,38	13144,27
704,57	13015,87
704,75	13101,47
704,94	13072,80
705,13	13034,71
705,31	13245,44
705,50	13190,35
705,68	13071,98
705,87	13144,68
706,06	13092,05
706,24	13332,69
706,43	13190,15
706,61	13195,68
706,80	13126,66
706,99	13255,07
707,17	13220,25
707,36	13244,21
707,54	13117,85
707,73	13172,33
707,92	13280,46
708,10	13256,09
708,29	13138,95
708,47	13233,15
708,66	13127,48
708,84	13142,84
709,03	13170,90
709,22	13117,85
709,40	12947,87
709,59	13239,91
709,77	13035,32
709,96	13048,43
710,14	13066,45
710,33	13002,55
710,52	13157,99
710,70	13100,24
710,89	13057,85
711,07	13067,47
711,26	13033,68
711,44	12979,62
711,63	12900,56
711,81	12925,75
712,00	12835,03
712,19	12713,59
712,37	12716,45
712,56	12632,08
712,74	12538,69
712,93	12629,41
713,11	12618,76
713,30	12460,66
713,48	12390,01
713,67	12550,36
713,85	12168,01
714,04	12112,51
714,22	11995,57
714,41	11972,22
714,59	11848,93
714,78	11812,48
714,97	11688,58
715,15	11341,86
715,34	11181,29
715,52	10935,54
715,71	10551,34
715,89	10059,21
716,08	9659,24
716,26	9086,22
716,45	8686,66
716,63	8391,55
716,82	7962,91
717,00	7863,79
717,19	7593,66
717,37	7438,84
717,56	7069,79
717,74	6948,35
717,93	6731,47
718,11	6584,83
718,30	6371,23
718,48	6409,12
718,67	6255,52
718,85	6086,56
719,04	5969,83
719,22	5987,44
719,41	5989,69
719,59	6059,94
719,78	6131,21
719,96	6422,63
720,15	6723,07
720,33	7187,35
720,52	7365,93
720,70	7800,10
720,88	8050,97
721,07	8270,52
721,25	8489,24
721,44	8648,16
721,62	8690,76
721,81	8921,77
721,99	8702,02
722,18	8524,67
722,36	8405,07
722,55	8117,53
722,73	7803,17
722,92	7717,77
723,10	7413,03
723,28	7351,80
723,47	7106,04
723,65	7054,84
723,84	6956,54
724,02	6872,16
724,21	6832,23
724,39	6734,75
724,58	6612,07
724,76	6758,09
724,94	6665,32
725,13	6705,46
725,31	6551,25
725,50	6669,82
725,68	6700,34
725,87	6644,43
726,05	6720,00
726,23	6720,00
726,42	6744,58
726,60	6576,23
726,79	6436,15
726,97	6488,37
727,16	6379,01
727,34	6538,96
727,52	6643,41
727,71	6791,27
727,89	6799,26
728,08	6718,57
728,26	6562,31
728,44	6593,44
728,63	6496,77
728,81	6512,54
729,00	6541,21
729,18	6691,33
729,36	6576,44
729,55	6688,67
729,73	6587,29
729,92	6559,64
730,10	6445,16
730,28	6621,49
730,47	6564,56
730,65	6691,33
730,84	6626,00
731,02	6857,01
731,20	7018,39
731,39	7161,75
731,57	7284,22
731,75	7620,90
731,94	7674,15
732,12	7826,31
732,31	7905,57
732,49	8099,10
732,67	8153,17
732,86	8268,26
733,04	8409,16
733,22	8606,79
733,41	8571,77
733,59	8765,72
733,78	8693,22
733,96	8577,92
734,14	8673,76
734,33	8623,18
734,51	8534,09
734,69	8549,45
734,88	8546,79
735,06	8459,54
735,24	8329,29
735,43	8383,36
735,61	8392,37
735,79	8267,04
735,98	8274,41
736,16	8395,65
736,34	8296,53
736,53	8485,96
736,71	8562,76
736,89	8524,87
737,08	8558,05
737,26	8671,92
737,44	8511,77
737,63	8540,64
737,81	8502,76
737,99	8502,35
738,18	8530,81
738,36	8464,25
738,54	8508,70
738,73	8552,52
738,91	8600,04
739,09	8624,41
739,28	8639,15
739,46	8690,35
739,64	8824,90
739,82	8744,21
740,01	8777,59
740,19	8900,47
740,37	8715,13
740,56	8707,35
740,74	8687,28
740,92	8751,99
741,11	8736,02
741,29	8728,85
741,47	8766,54
741,65	8736,02
741,84	8792,13
742,02	8805,65
742,20	8773,91
742,39	8744,01
742,57	8872,42
742,75	8910,51
742,93	8781,89
743,12	8845,79
743,30	8715,95
743,48	8797,46
743,67	8650,82
743,85	8574,03
744,03	8721,07
744,21	8707,55
744,40	8649,80
744,58	8645,91
744,76	8619,49
744,94	8629,32
745,13	8578,33
745,31	8593,69
745,49	8548,02
745,67	8548,84
745,86	8537,16
746,04	8455,86
746,22	8506,65
746,40	8439,06
746,59	8476,34
746,77	8545,97
746,95	8301,24
747,13	8432,72
747,32	8343,02
747,50	8382,75
747,68	8262,53
747,86	8192,69
748,05	8260,28
748,23	8190,44
748,41	8175,08
748,59	8114,46
748,77	8023,33
748,96	7948,17
749,14	8056,30
749,32	8039,30
749,50	7939,97
749,69	7977,04
749,87	7807,27
750,05	7842,49
750,23	7739,68
750,41	7802,97
750,60	7823,65
750,78	7787,81
750,96	7805,83
751,14	7739,48
751,32	7786,99
751,51	7732,72
751,69	7765,49
751,87	7544,51
752,05	7696,27
752,23	7709,78
752,42	7607,18
752,60	7777,16
752,78	7549,84
752,96	7661,86
753,14	7630,12
753,33	7662,27
753,51	7657,36
753,69	7690,94
753,87	7624,18
754,05	7679,06
754,23	7619,47
754,42	7649,37
754,60	7557,21
754,78	7550,25
754,96	7507,44
755,14	7599,81
755,32	7550,04
755,51	7600,63
755,69	7453,58
755,87	7648,55
756,05	7520,76
756,23	7591,21
756,41	7500,07
756,60	7617,42
756,78	7499,87
756,96	7498,43
757,14	7534,27
757,32	7595,30
757,50	7530,18
757,68	7374,53
757,87	7335,00
758,05	7249,19
758,23	6970,67
758,41	6632,35
758,59	6049,29
758,77	5382,88
758,95	4703,16
759,14	3896,67
759,32	3312,18
759,50	2673,42
759,68	2281,44
759,86	1824,94
760,04	1591,48
760,22	1382,58
760,40	1354,53
760,59	1396,92
760,77	1538,02
760,95	1728,69
761,13	1908,91
761,31	1947,62
761,49	2035,07
761,67	2010,29
761,85	1763,10
762,03	1614,21
762,22	1561,78
762,40	1530,45
762,58	1501,16
762,76	1452,21
762,94	1495,22
763,12	1596,60
763,30	1696,74
763,48	1738,52
763,66	1894,37
763,84	2055,14
764,02	2160,40
764,21	2359,46
764,39	2550,13
764,57	2739,77
764,75	2924,09
764,93	3114,96
765,11	3297,02
765,29	3622,86
765,47	3782,60
765,65	4045,15
765,83	4206,12
766,01	4477,06
766,19	4733,27
766,37	5024,90
766,56	5150,44
766,74	5421,59
766,92	5526,03
767,10	5741,69
767,28	5857,60
767,46	5993,99
767,64	6129,78
767,82	6279,48
768,00	6269,45
768,18	6499,43
768,36	6424,48
768,54	6386,18
768,72	6447,62
768,90	6535,68
769,08	6505,58
769,26	6574,18
769,44	6709,35
769,62	6662,86
769,80	6686,82
769,98	6698,50
770,16	6699,11
770,34	6614,73
770,52	6713,24
770,71	6672,28
770,89	6745,39
771,07	6703,00
771,25	6564,35
771,43	6585,86
771,61	6603,47
771,79	6615,35
771,97	6587,50
772,15	6598,35
772,33	6560,87
772,51	6423,25
772,69	6447,21
772,87	6516,23
773,05	6444,34
773,23	6469,33
773,41	6387,20
773,59	6389,25
773,77	6246,30
773,95	6269,65
774,13	6269,65
774,31	6275,39
774,49	6177,29
774,67	6118,72
774,85	6225,82
775,03	6055,84
775,21	6151,07
775,39	6121,58
775,57	6077,14
775,75	6076,32
775,93	5979,66
776,10	5985,80
776,28	5942,59
776,46	5962,87
776,64	5838,76
776,82	5834,66
777,00	6187,12
777,18	5724,48
777,36	5614,92
777,54	5720,18
777,72	5707,69
777,90	5613,07
778,08	5616,14
778,26	5562,08
778,44	5580,10
778,62	5556,96
778,80	5471,97
778,98	5414,83
779,16	5454,76
779,34	5394,14
779,52	5435,92
779,70	5376,33
779,88	5323,49
780,05	5305,06
780,23	5283,76
780,41	5353,80
780,59	5246,28
780,77	5161,29
780,95	5164,57
781,13	5209,62
781,31	5073,64
781,49	5042,51
781,67	5045,99
781,85	5123,40
782,03	4993,97
782,21	4983,12
782,39	4937,04
782,56	4866,38
782,74	4729,17
782,92	4746,58
783,10	4787,74
783,28	4830,75
783,46	4756,41
783,64	4701,93
783,82	4754,77
784,00	4657,70
784,18	4665,48
784,35	4648,68
784,53	4671,42
784,71	4519,05
784,89	4583,97
785,07	4513,11
785,25	4541,37
785,43	4456,99
785,61	4397,81
785,79	4367,29
785,96	4269,61
786,14	4338,83
786,32	4232,33
786,50	4300,94
786,68	4076,69
786,86	4157,99
787,04	4161,88
787,22	4111,50
787,39	4073,21
787,57	4101,06
787,75	3912,85
787,93	4013,40
788,11	3889,91
788,29	3888,27
788,47	3803,49
788,65	3729,35
788,82	3706,62
789,00	3680,81
789,18	3661,77
789,36	3734,88
789,54	3620,60
789,72	3655,83
789,89	3637,19
790,07	3631,66
790,25	3585,38
790,43	3601,35
790,61	3519,43
790,79	3606,47
790,96	3566,54
791,14	3527,42
791,32	3468,44
791,50	3548,72
791,68	3465,16
791,86	3554,45
792,03	3453,90
792,21	3475,20
792,39	3485,85
792,57	3463,32
792,75	3415,19
792,93	3527,01
793,10	3431,99
793,28	3522,71
793,46	3471,92
793,64	3490,56
793,82	3411,71
793,99	3431,58
794,17	3457,38
794,35	3422,57
794,53	3464,75
794,71	3404,13
794,88	3301,74
795,06	3239,48
795,24	3213,06
795,42	3176,81
795,60	3142,40
795,77	3094,28
795,95	3046,35
796,13	3108,61
796,31	3095,71
796,49	3087,11
796,66	3040,41
796,84	3140,36
797,02	3201,38
797,20	3092,64
797,37	3049,63
797,55	3037,14
797,73	3082,81
797,91	3106,56
798,08	3110,86
798,26	3037,75
798,44	2946,21
798,62	2979,79
798,80	2982,25
798,97	2888,86
799,15	2871,05
799,33	2855,89
799,51	2865,11
799,68	2824,15
799,86	2845,45
800,04	2914,67
800,22	2770,90
800,39	2798,75
800,57	2727,08
800,75	2732,40
800,93	2669,12
801,10	2772,95
801,28	2661,95
801,46	2645,16
801,63	2644,13
801,81	2624,68
801,99	2676,70
802,17	2609,11
802,34	2525,15
802,52	2642,70
802,70	2620,79
802,88	2636,15
803,05	2582,49
803,23	2564,88
803,41	2501,80
803,58	2570,00
803,76	2570,20
803,94	2610,96
804,12	2523,30
804,29	2596,82
804,47	2551,97
804,65	2611,77
804,82	2563,85
805,00	2508,56
805,18	2614,44
805,35	2656,42
805,53	2519,62
805,71	2626,52
805,89	2633,89
806,06	2576,55
806,24	2565,29
806,42	2618,53
806,59	2529,65
806,77	2589,86
806,95	2534,77
807,12	2500,98
807,30	2451,01
807,48	2439,75
807,65	2371,34
807,83	2475,38
808,01	2445,68
808,18	2440,77
808,36	2436,88
808,54	2406,36
808,71	2409,84
808,89	2318,51
809,07	2297,41
809,24	2285,12
809,42	2224,30
809,60	2245,19
809,77	2279,59
809,95	2188,87
810,13	2176,79
810,30	2241,50
810,48	2142,18
810,66	2069,06
810,83	2062,71
811,01	2155,49
811,18	2020,94
811,36	2032,20
811,54	1923,66
811,71	1923,45
811,89	1921,20
812,07	1933,69
812,24	1958,68
812,42	1783,58
812,59	1786,03
812,77	1756,54
812,95	1627,93
813,12	1709,23
813,30	1671,14
813,48	1549,08
813,65	1633,26
813,83	1513,45
814,00	1563,62
814,18	1432,14
814,36	1409,62
814,53	1403,27
814,71	1465,73
814,88	1433,99
815,06	1375,62
815,24	1387,29
815,41	1266,05
815,59	1228,99
815,76	1202,36
815,94	1218,54
816,12	1228,99
816,29	1195,40
816,47	1131,09
816,64	1193,56
816,82	1209,94
817,00	1160,38
817,17	1180,24
817,35	1176,35
817,52	1086,65
817,70	1186,39
817,87	1150,14
818,05	1180,04
818,23	1162,22
818,40	1155,05
818,58	1140,10
818,75	1146,04
818,93	1253,77
819,10	1192,74
819,28	1202,77
819,46	1294,73
819,63	1320,74
819,81	1350,43
819,98	1367,22
820,16	1420,88
820,33	1471,47
820,51	1423,75
820,68	1427,02
820,86	1363,33
821,03	1317,25
821,21	1393,85
821,39	1301,69
821,56	1343,06
821,74	1243,53
821,91	1142,97
822,09	1036,48
822,26	1116,14
822,44	971,56
822,61	1101,60
822,79	1025,83
822,96	1114,10
823,14	1170,21
823,31	1205,02
823,49	1195,19
823,66	1286,12
823,84	1262,57
824,01	1224,89
824,19	1262,57
824,36	1316,23
824,54	1340,19
824,71	1237,38
824,89	1327,08
825,06	1226,12
825,24	1221,00
825,41	1353,50
825,59	1267,69
825,76	1255,20
825,94	1299,23
826,11	1363,54
826,29	1356,78
826,46	1319,30
826,64	1235,13
826,81	1221,00
826,99	1126,18
827,16	1208,10
827,34	1172,67
827,51	1153,01
827,69	1228,58
827,86	1170,41
828,04	1193,97
828,21	1213,01
828,39	1144,81
828,56	1155,67
828,74	1202,57
828,91	1103,45
829,09	1192,74
829,26	1176,35
829,43	1084,40
829,61	1214,45
829,78	1133,76
829,96	1144,81
830,13	1224,48
830,31	1177,79
830,48	1144,00
830,66	1235,95
830,83	1093,62
831,01	1164,27
831,18	1222,02
831,35	1138,67
831,53	1169,39
831,70	1138,06
831,88	1159,97
832,05	1237,18
832,23	1147,07
832,40	1184,95
832,57	1204,00
832,75	1186,59
832,92	1082,35
833,10	1128,23
833,27	1182,70
833,45	1228,37
833,62	1164,07
833,79	1171,23
833,97	1186,59
834,14	1145,84
834,32	1174,92
834,49	1227,76
834,66	1139,90
834,84	1192,12
835,01	1108,98
835,19	1249,26
835,36	1244,76
835,53	1185,77
835,71	1172,87
835,88	1266,05
836,06	1269,54
836,23	1282,64
836,40	1215,88
836,58	1193,15
836,75	1304,56
836,93	1293,09
837,10	1214,65
837,27	1271,58
837,45	1196,01
837,62	1243,12
837,79	1189,67
837,97	1256,63
838,14	1243,53
838,32	1272,81
838,49	1200,52
838,66	1254,38
838,84	1258,89
839,01	1205,64
839,18	1255,40
839,36	1273,84
839,53	1220,18
839,70	1243,73
839,88	1188,44
840,05	1199,09
840,23	1110,00
840,40	1182,09
840,57	1162,43
840,75	1203,59
840,92	1184,55
841,09	1221,00
841,27	1252,33
841,44	1118,19
841,61	1147,68
841,79	1111,64
841,96	1187,21
842,13	1172,46
842,31	1153,01
842,48	1168,78
842,65	1142,56
842,83	1195,40
843,00	1143,59
843,17	1141,95
843,35	1212,81
843,52	1143,38
843,69	1170,00
843,86	1128,02
844,04	1138,67
844,21	1106,52
844,38	1110,00
844,56	1106,52
844,73	1161,81
844,90	1119,83
845,08	1160,38
845,25	1131,91
845,42	1244,55
845,60	1091,98
845,77	1097,51
845,94	1093,00
846,11	1056,55
846,29	1109,79
846,46	1095,87
846,63	1121,26
846,81	1035,45
846,98	1029,51
847,15	1100,99
847,32	1084,40
847,50	1120,03
847,67	1037,91
847,84	1009,24
848,01	991,22
848,19	1057,57
848,36	1078,87
848,53	1065,76
848,71	933,46
848,88	968,48
849,05	1079,89
849,22	966,23
849,40	951,69
849,57	1074,57
849,74	925,48
849,91	903,77
850,09	991,22
850,26	1001,87
850,43	1035,86
850,60	1001,05
850,78	994,70
850,95	1038,32
851,12	991,01
851,29	914,21
851,47	988,14
851,64	961,93
851,81	915,44
851,98	924,66
852,15	940,02
852,33	951,49
852,50	968,69
852,67	927,93
852,84	855,85
853,02	919,95
853,19	823,49
853,36	873,87
853,53	825,13
853,70	785,81
853,88	838,85
854,05	777,61
854,22	880,42
854,39	774,75
854,56	896,19
854,74	898,44
854,91	866,70
855,08	819,19
855,25	792,56
855,42	896,40
855,60	909,09
855,77	812,22
855,94	898,03
856,11	875,92
856,28	841,72
856,46	807,92
856,63	890,46
856,80	861,38
856,97	894,35
857,14	816,73
857,31	858,30
857,49	926,91
857,66	892,30
857,83	835,78
858,00	872,84
858,17	837,62
858,34	800,35
858,52	894,14
858,69	763,89
858,86	882,26
859,03	914,62
859,20	781,30
859,37	839,26
859,55	820,42
859,72	873,87
859,89	784,99
860,06	869,16
860,23	825,13
860,40	865,68
860,57	856,46
860,75	736,24
860,92	765,53
861,09	708,19
861,26	790,52
861,43	784,78
861,60	742,80
861,77	790,11
861,95	805,26
862,12	783,96
862,29	784,78
862,46	815,09
862,63	773,52
862,80	699,38
862,97	775,16
863,14	788,06
863,31	862,81
863,49	734,61
863,66	742,39
863,83	749,56
864,00	744,23
864,17	771,47
864,34	665,18
864,51	738,29
864,68	738,50
864,85	695,49
865,02	673,37
865,20	663,13
865,37	690,37
865,54	760,82
865,71	646,75
865,88	689,55
866,05	615,21
866,22	604,77
866,39	587,97
866,56	601,08
866,73	606,81
866,90	590,22
867,07	665,59
867,25	591,86
867,42	605,99
867,59	643,27
867,76	603,95
867,93	670,30
868,10	713,10
868,27	660,27
868,44	652,28
868,61	573,43
868,78	577,32
868,95	640,20
869,12	650,03
869,29	661,49
869,46	656,99
869,63	648,59
869,80	640,60
869,97	633,85
870,14	576,09
870,32	541,28
870,49	616,23
870,66	627,09
870,83	620,33
871,00	622,99
871,17	572,41
871,34	612,75
871,51	567,90
871,68	575,27
871,85	636,10
872,02	578,96
872,19	573,23
872,36	580,19
872,53	629,96
872,70	541,28
872,87	554,79
873,04	587,15
873,21	596,37
873,38	541,69
873,55	585,72
873,72	458,74
873,89	569,34
874,06	487,83
874,23	556,02
874,40	517,52
874,57	445,64
874,74	597,39
874,91	519,98
875,08	447,69
875,25	530,63
875,42	453,01
875,59	497,25
875,76	443,59
875,93	540,66
876,10	506,67
876,27	479,43
876,44	515,27
876,61	520,80
876,78	480,25
876,95	474,10
877,12	448,30
877,29	530,83
877,46	449,12
877,62	490,49
877,79	537,59
877,96	481,27
878,13	505,03
878,30	516,70
878,47	427,41
878,64	378,67
878,81	547,83
878,98	401,61
879,15	534,72
879,32	485,57
879,49	492,74
879,66	398,94
879,83	433,35
880,00	531,86
880,17	476,77
880,34	448,51
880,51	473,90
880,67	396,69
880,84	376,42
881,01	396,28
881,18	413,08
881,35	448,71
881,52	510,15
881,69	432,74
881,86	395,67
882,03	412,26
882,20	430,48
882,37	484,34
882,54	424,95
882,70	393,01
882,87	426,18
883,04	412,67
883,21	462,43
883,38	459,15
883,55	356,76
883,72	415,33
883,89	416,56
884,06	399,35
884,23	477,79
884,39	434,17
884,56	372,53
884,73	392,80
884,90	505,44
885,07	447,07
885,24	434,17
885,41	413,08
885,58	383,17
885,74	536,57
885,91	401,20
886,08	397,31
886,25	379,08
886,42	395,26
886,59	453,22
886,76	309,45
886,93	333,00
887,09	299,62
887,26	422,91
887,43	372,32
887,60	353,27
887,77	372,12
887,94	412,05
888,10	255,79
888,27	368,84
888,44	398,74
888,61	374,16
888,78	353,48
888,95	327,06
889,12	294,29
889,28	368,22
889,45	367,82
889,62	356,76
889,79	322,35
889,96	388,91
890,13	349,59
890,29	361,47
890,46	299,62
890,63	278,32
890,80	300,03
890,97	305,35
891,13	283,64
891,30	382,15
891,47	330,13
891,64	280,57
891,81	408,36
891,98	261,32
892,14	367,82
892,31	326,86
892,48	308,42
892,65	330,13
892,82	316,41
892,98	302,69
893,15	253,54
893,32	315,39
>>>>>End Processed Spectral Data<<<<<
