SpectraSuite Datei
++++++++++++++++++++++++++++++++++++
Datum: Thu Mar 09 10:07:23 CET 2017
Benutzer: Admin
Dark-Spektrum vorhanden: Nein
Referenz-Spektrum vorhanden: Nein
Zahl der probierten Teilspektren: 1
Spektrometer: USB4F05832
Integrationszeit (usec): 100000 (USB4F05832)
Spektren Durchschnitt berechnet: 10 (USB4F05832)
Boxcar Glättung: 0 (USB4F05832)
Dunkelstromkorrektur: Nein (USB4F05832)
Puls/Lampe aktiviert: Nein (USB4F05832)
Correct for Detector Non-linearity: Nein (USB4F05832)
Streulichtkorrektur: Nein (USB4F05832)
Anzahl Pixel in verarbeitetem Spektrum: 3648
>>>>>Begin Processed Spectral Data<<<<<
177,54	1330,77
177,75	1330,77
177,97	1330,77
178,19	1315,21
178,41	1328,52
178,63	1499,32
178,85	1395,28
179,07	1446,28
179,29	1435,83
179,51	1398,76
179,73	1465,53
179,95	1456,92
180,17	1447,91
180,39	1503,00
180,61	1487,64
180,83	1515,29
181,05	1419,45
181,27	1461,64
181,49	1446,28
181,71	1476,18
181,92	1589,84
182,14	1472,28
182,36	1438,29
182,58	1513,86
182,80	1457,95
183,02	1577,14
183,24	1535,77
183,46	1492,35
183,68	1479,45
183,90	1502,80
184,12	1468,19
184,34	1529,63
184,56	1490,72
184,78	1462,66
185,00	1494,61
185,21	1559,53
185,43	1461,43
185,65	1503,82
185,87	1467,78
186,09	1572,02
186,31	1479,66
186,53	1475,97
186,75	1505,05
186,97	1515,09
187,19	1551,54
187,41	1453,24
187,63	1541,71
187,84	1456,92
188,06	1519,80
188,28	1462,04
188,50	1511,81
188,72	1574,27
188,94	1537,00
189,16	1460,61
189,38	1484,16
189,60	1517,54
189,82	1485,19
190,03	1516,32
190,25	1490,31
190,47	1510,58
190,69	1479,66
190,91	1450,78
191,13	1483,55
191,35	1548,26
191,57	1474,33
191,79	1483,75
192,01	1503,41
192,22	1544,17
192,44	1472,28
192,66	1527,17
192,88	1505,26
193,10	1473,72
193,32	1477,40
193,54	1553,59
193,76	1551,95
193,98	1489,08
194,19	1522,66
194,41	1497,07
194,63	1466,35
194,85	1491,33
195,07	1551,75
195,29	1411,46
195,51	1512,22
195,73	1471,47
195,94	1472,90
196,16	1481,71
196,38	1591,89
196,60	1487,03
196,82	1464,71
197,04	1485,19
197,26	1467,78
197,48	1467,57
197,69	1525,53
197,91	1447,30
198,13	1480,07
198,35	1488,46
198,57	1483,75
198,79	1541,71
199,01	1534,75
199,22	1484,78
199,44	1549,29
199,66	1483,75
199,88	1510,38
200,10	1528,81
200,32	1539,05
200,54	1533,93
200,75	1577,76
200,97	1479,25
201,19	1536,39
201,41	1546,22
201,63	1469,83
201,85	1461,02
202,06	1521,44
202,28	1463,89
202,50	1511,40
202,72	1430,10
202,94	1452,62
203,16	1476,59
203,38	1499,11
203,59	1475,77
203,81	1538,23
204,03	1451,19
204,25	1504,03
204,47	1561,58
204,69	1509,15
204,90	1471,88
205,12	1498,70
205,34	1520,41
205,56	1490,51
205,78	1439,93
206,00	1579,39
206,21	1546,22
206,43	1483,34
206,65	1524,51
206,87	1472,49
207,09	1524,10
207,30	1441,77
207,52	1531,68
207,74	1504,85
207,96	1500,14
208,18	1474,95
208,40	1469,42
208,61	1481,30
208,83	1516,93
209,05	1453,03
209,27	1439,72
209,49	1513,45
209,70	1540,69
209,92	1525,53
210,14	1449,14
210,36	1496,86
210,58	1509,15
210,79	1501,98
211,01	1443,82
211,23	1544,37
211,45	1530,65
211,67	1509,56
211,88	1441,57
212,10	1518,36
212,32	1492,35
212,54	1490,51
212,76	1475,97
212,97	1440,54
213,19	1455,29
213,41	1549,90
213,63	1455,70
213,85	1461,02
214,06	1468,19
214,28	1573,25
214,50	1498,09
214,72	1503,41
214,94	1497,88
215,15	1476,18
215,37	1463,07
215,59	1477,00
215,81	1547,85
216,02	1513,86
216,24	1523,89
216,46	1452,21
216,68	1490,51
216,90	1503,41
217,11	1515,70
217,33	1459,59
217,55	1536,80
217,77	1525,74
217,98	1539,87
218,20	1515,09
218,42	1532,29
218,64	1524,71
218,85	1581,65
219,07	1513,86
219,29	1491,54
219,51	1536,80
219,73	1489,69
219,94	1483,34
220,16	1578,16
220,38	1511,81
220,60	1480,68
220,81	1450,17
221,03	1440,54
221,25	1515,09
221,47	1446,48
221,68	1496,86
221,90	1522,46
222,12	1498,91
222,34	1498,29
222,55	1515,29
222,77	1574,27
222,99	1482,52
223,21	1504,03
223,42	1534,13
223,64	1522,87
223,86	1473,31
224,08	1496,86
224,29	1562,19
224,51	1508,94
224,73	1485,80
224,94	1531,68
225,16	1469,83
225,38	1465,12
225,60	1522,87
225,81	1477,61
226,03	1498,29
226,25	1443,00
226,47	1529,01
226,68	1525,33
226,90	1520,41
227,12	1512,22
227,33	1521,44
227,55	1489,28
227,77	1473,10
227,99	1559,12
228,20	1485,60
228,42	1503,21
228,64	1523,89
228,86	1499,32
229,07	1504,23
229,29	1465,32
229,51	1418,83
229,72	1542,12
229,94	1501,37
230,16	1517,54
230,38	1465,73
230,59	1516,93
230,81	1553,18
231,03	1546,42
231,24	1507,10
231,46	1475,56
231,68	1475,56
231,89	1489,08
232,11	1476,79
232,33	1572,23
232,55	1503,62
232,76	1533,72
232,98	1502,80
233,20	1497,47
233,41	1462,66
233,63	1484,37
233,85	1500,75
234,06	1505,26
234,28	1535,98
234,50	1447,30
234,71	1507,51
234,93	1569,36
235,15	1509,35
235,37	1454,47
235,58	1509,76
235,80	1465,12
236,02	1486,62
236,23	1503,21
236,45	1484,16
236,67	1504,64
236,88	1503,62
237,10	1539,25
237,32	1552,57
237,53	1507,51
237,75	1489,90
237,97	1434,19
238,18	1488,05
238,40	1515,50
238,62	1483,96
238,83	1492,76
239,05	1481,71
239,27	1495,22
239,48	1445,25
239,70	1482,32
239,92	1542,53
240,13	1533,11
240,35	1484,16
240,57	1489,28
240,78	1505,87
241,00	1474,74
241,22	1498,50
241,43	1572,64
241,65	1492,97
241,87	1552,77
242,08	1631,82
242,30	1484,37
242,52	1486,01
242,73	1536,59
242,95	1465,53
243,16	1511,40
243,38	1582,06
243,60	1507,71
243,81	1506,69
244,03	1560,76
244,25	1446,48
244,46	1481,91
244,68	1452,42
244,90	1496,66
245,11	1457,95
245,33	1511,81
245,55	1524,51
245,76	1484,16
245,98	1474,74
246,19	1555,43
246,41	1551,54
246,63	1542,73
246,84	1565,88
247,06	1520,41
247,28	1513,86
247,49	1529,63
247,71	1453,85
247,92	1503,62
248,14	1542,73
248,36	1536,39
248,57	1552,36
248,79	1576,94
249,01	1502,59
249,22	1498,50
249,44	1508,33
249,65	1491,13
249,87	1513,24
250,09	1541,51
250,30	1509,97
250,52	1514,68
250,73	1543,14
250,95	1460,61
251,17	1505,87
251,38	1487,85
251,60	1486,01
251,81	1551,95
252,03	1542,12
252,25	1445,46
252,46	1480,89
252,68	1553,38
252,89	1527,38
253,11	1517,14
253,33	1535,16
253,54	1435,22
253,76	1533,72
253,97	1542,53
254,19	1561,58
254,41	1467,37
254,62	1558,30
254,84	1551,54
255,05	1508,53
255,27	1542,94
255,49	1569,15
255,70	1537,61
255,92	1478,63
256,13	1467,16
256,35	1521,64
256,56	1534,95
256,78	1534,95
257,00	1532,50
257,21	1508,74
257,43	1469,01
257,64	1524,92
257,86	1547,45
258,08	1530,45
258,29	1580,62
258,51	1476,59
258,72	1531,27
258,94	1558,71
259,15	1504,44
259,37	1514,68
259,59	1443,82
259,80	1534,95
260,02	1493,38
260,23	1509,97
260,45	1475,15
260,66	1500,75
260,88	1499,93
261,09	1503,41
261,31	1482,11
261,53	1550,52
261,74	1547,45
261,96	1440,75
262,17	1485,39
262,39	1520,41
262,60	1479,04
262,82	1511,61
263,03	1508,12
263,25	1530,04
263,46	1513,45
263,68	1519,39
263,90	1496,45
264,11	1480,68
264,33	1558,50
264,54	1539,05
264,76	1527,58
264,97	1549,49
265,19	1475,36
265,40	1561,99
265,62	1479,04
265,83	1524,51
266,05	1500,34
266,26	1502,39
266,48	1572,84
266,70	1573,86
266,91	1466,35
267,13	1522,05
267,34	1472,69
267,56	1527,78
267,77	1522,87
267,99	1492,76
268,20	1598,44
268,42	1515,09
268,63	1461,23
268,85	1611,34
269,06	1511,81
269,28	1542,33
269,49	1504,03
269,71	1546,01
269,92	1479,45
270,14	1481,50
270,35	1502,39
270,57	1556,05
270,78	1509,15
271,00	1509,97
271,21	1601,10
271,43	1465,32
271,64	1494,40
271,86	1552,97
272,07	1475,56
272,29	1580,01
272,50	1493,17
272,72	1548,06
272,93	1542,53
273,15	1557,89
273,36	1547,45
273,58	1517,34
273,79	1512,63
274,01	1505,05
274,22	1485,19
274,44	1505,67
274,65	1526,15
274,87	1540,48
275,08	1541,10
275,30	1534,54
275,51	1634,48
275,73	1571,41
275,94	1464,71
276,16	1500,75
276,37	1509,35
276,59	1518,98
276,80	1478,02
277,02	1521,64
277,23	1473,72
277,45	1540,28
277,66	1436,45
277,88	1527,58
278,09	1600,90
278,30	1515,50
278,52	1481,30
278,73	1627,32
278,95	1530,65
279,16	1591,68
279,38	1541,51
279,59	1553,18
279,81	1519,80
280,02	1518,57
280,24	1488,05
280,45	1504,23
280,67	1568,13
280,88	1550,11
281,09	1479,66
281,31	1480,68
281,52	1519,18
281,74	1582,26
281,95	1517,75
282,17	1509,15
282,38	1533,11
282,60	1548,88
282,81	1535,77
283,02	1501,57
283,24	1486,42
283,45	1549,70
283,67	1487,23
283,88	1543,96
284,10	1502,59
284,31	1542,12
284,53	1503,41
284,74	1504,64
284,95	1524,71
285,17	1518,77
285,38	1484,16
285,60	1496,25
285,81	1485,60
286,03	1553,59
286,24	1557,07
286,45	1567,92
286,67	1534,75
286,88	1502,80
287,10	1555,23
287,31	1464,71
287,53	1537,41
287,74	1535,57
287,95	1467,37
288,17	1544,78
288,38	1534,95
288,60	1505,26
288,81	1506,49
289,02	1489,90
289,24	1572,64
289,45	1506,08
289,67	1529,42
289,88	1520,62
290,10	1544,99
290,31	1538,23
290,52	1513,04
290,74	1530,86
290,95	1540,07
291,17	1540,69
291,38	1490,51
291,59	1489,08
291,81	1506,90
292,02	1491,13
292,24	1545,19
292,45	1557,28
292,66	1522,46
292,88	1580,83
293,09	1540,69
293,31	1542,53
293,52	1511,61
293,73	1472,49
293,95	1546,63
294,16	1531,47
294,37	1532,09
294,59	1534,34
294,80	1599,26
295,02	1508,53
295,23	1478,22
295,44	1524,51
295,66	1519,39
295,87	1538,23
296,09	1496,04
296,30	1521,44
296,51	1495,84
296,73	1495,22
296,94	1509,15
297,15	1475,56
297,37	1473,31
297,58	1520,82
297,79	1522,46
298,01	1536,18
298,22	1573,45
298,44	1474,95
298,65	1530,45
298,86	1561,58
299,08	1514,68
299,29	1502,19
299,50	1479,45
299,72	1475,36
299,93	1550,93
300,14	1552,36
300,36	1464,30
300,57	1455,29
300,79	1493,38
301,00	1560,55
301,21	1452,62
301,43	1491,13
301,64	1496,25
301,85	1506,69
302,07	1558,50
302,28	1499,11
302,49	1618,51
302,71	1536,18
302,92	1568,95
303,13	1560,35
303,35	1523,28
303,56	1547,45
303,77	1472,28
303,99	1525,53
304,20	1544,37
304,41	1502,39
304,63	1478,22
304,84	1545,60
305,05	1563,01
305,27	1531,06
305,48	1552,97
305,69	1513,04
305,91	1552,97
306,12	1511,61
306,33	1533,31
306,55	1495,02
306,76	1518,36
306,97	1513,45
307,19	1532,50
307,40	1580,01
307,61	1573,45
307,82	1497,07
308,04	1555,02
308,25	1581,03
308,46	1542,12
308,68	1533,52
308,89	1559,94
309,10	1531,88
309,32	1514,68
309,53	1504,64
309,74	1564,65
309,96	1520,00
310,17	1536,39
310,38	1510,38
310,59	1546,83
310,81	1534,75
311,02	1544,58
311,23	1539,25
311,45	1526,35
311,66	1522,26
311,87	1507,51
312,09	1565,26
312,30	1528,40
312,51	1548,47
312,72	1533,72
312,94	1556,66
313,15	1533,31
313,36	1542,33
313,58	1503,82
313,79	1604,17
314,00	1516,73
314,21	1469,21
314,43	1542,12
314,64	1554,61
314,85	1501,98
315,06	1492,35
315,28	1566,49
315,49	1554,20
315,70	1541,10
315,92	1601,31
316,13	1600,49
316,34	1591,27
316,55	1565,06
316,77	1503,00
316,98	1594,75
317,19	1525,74
317,40	1456,11
317,62	1495,84
317,83	1614,82
318,04	1556,05
318,25	1512,02
318,47	1539,66
318,68	1557,89
318,89	1579,60
319,11	1544,17
319,32	1550,11
319,53	1593,73
319,74	1579,60
319,96	1564,03
320,17	1533,31
320,38	1464,71
320,59	1617,08
320,81	1552,36
321,02	1570,79
321,23	1534,95
321,44	1573,86
321,65	1544,78
321,87	1568,13
322,08	1603,56
322,29	1550,93
322,50	1535,36
322,72	1533,31
322,93	1553,18
323,14	1516,11
323,35	1544,58
323,57	1573,25
323,78	1551,95
323,99	1555,84
324,20	1599,67
324,41	1530,45
324,63	1566,29
324,84	1549,70
325,05	1544,78
325,26	1586,97
325,48	1570,38
325,69	1570,38
325,90	1537,21
326,11	1526,76
326,32	1538,43
326,54	1570,79
326,75	1540,48
326,96	1539,25
327,17	1586,15
327,39	1593,32
327,60	1568,54
327,81	1541,92
328,02	1517,54
328,23	1556,05
328,45	1578,57
328,66	1540,07
328,87	1589,43
329,08	1596,19
329,29	1547,85
329,51	1517,34
329,72	1543,35
329,93	1571,00
330,14	1534,13
330,35	1544,37
330,56	1535,57
330,78	1568,54
330,99	1568,54
331,20	1607,04
331,41	1585,13
331,62	1541,51
331,84	1554,82
332,05	1561,99
332,26	1596,80
332,47	1596,80
332,68	1555,84
332,90	1552,16
333,11	1522,26
333,32	1662,13
333,53	1579,60
333,74	1506,08
333,95	1593,32
334,17	1564,65
334,38	1564,44
334,59	1548,06
334,80	1534,34
335,01	1610,52
335,22	1563,01
335,44	1578,57
335,65	1544,17
335,86	1615,03
336,07	1566,90
336,28	1571,61
336,49	1551,34
336,71	1543,14
336,92	1635,92
337,13	1580,62
337,34	1551,95
337,55	1647,80
337,76	1556,05
337,97	1597,21
338,19	1572,02
338,40	1555,84
338,61	1632,85
338,82	1619,53
339,03	1576,94
339,24	1536,39
339,45	1537,41
339,67	1601,10
339,88	1590,45
340,09	1587,38
340,30	1544,78
340,51	1660,29
340,72	1581,44
340,93	1534,34
341,15	1583,49
341,36	1634,48
341,57	1556,87
341,78	1546,63
341,99	1588,40
342,20	1626,50
342,41	1573,86
342,62	1665,82
342,84	1541,30
343,05	1636,12
343,26	1573,04
343,47	1607,86
343,68	1563,42
343,89	1623,42
344,10	1625,27
344,31	1614,62
344,53	1547,85
344,74	1587,79
344,95	1586,36
345,16	1598,85
345,37	1647,18
345,58	1646,57
345,79	1601,92
346,00	1566,90
346,21	1595,16
346,42	1594,14
346,64	1585,95
346,85	1665,41
347,06	1623,22
347,27	1615,64
347,48	1691,62
347,69	1657,83
347,90	1621,17
348,11	1667,46
348,32	1583,90
348,53	1645,13
348,75	1600,49
348,96	1651,69
349,17	1592,91
349,38	1654,35
349,59	1618,51
349,80	1586,36
350,01	1716,81
350,22	1696,54
350,43	1631,62
350,64	1675,44
350,85	1708,01
351,06	1626,70
351,28	1658,65
351,49	1599,46
351,70	1672,17
351,91	1634,89
352,12	1645,34
352,33	1647,59
352,54	1633,87
352,75	1635,51
352,96	1642,27
353,17	1673,60
353,38	1700,22
353,59	1711,90
353,80	1759,00
354,01	1704,52
354,22	1668,89
354,44	1685,68
354,65	1766,17
354,86	1679,13
355,07	1653,94
355,28	1660,49
355,49	1706,57
355,70	1648,21
355,91	1720,29
356,12	1669,50
356,33	1673,19
356,54	1739,34
356,75	1696,74
356,96	1729,71
357,17	1777,64
357,38	1711,08
357,59	1759,61
357,80	1805,28
358,01	1754,29
358,22	1764,33
358,43	1745,28
358,64	1738,73
358,85	1728,69
359,07	1797,71
359,28	1747,33
359,49	1758,39
359,70	1752,24
359,91	1809,99
360,12	1761,46
360,33	1826,17
360,54	1768,83
360,75	1772,72
360,96	1777,02
361,17	1740,57
361,38	1760,84
361,59	1870,82
361,80	1764,94
362,01	1836,41
362,22	1834,37
362,43	1795,25
362,64	1851,77
362,85	1863,45
363,06	1937,99
363,27	1893,96
363,48	1920,38
363,69	1949,05
363,90	1831,29
364,11	1880,04
364,32	1888,84
364,53	1928,16
364,74	1935,74
364,95	1936,35
365,16	1895,80
365,37	1996,97
365,58	1891,91
365,79	1924,27
366,00	1958,06
366,21	1901,74
366,42	1968,30
366,63	1990,63
366,84	1921,61
367,05	1961,75
367,26	1993,90
367,47	2004,14
367,68	1986,53
367,89	1967,89
368,10	1949,87
368,31	1918,13
368,52	1999,23
368,73	1994,11
368,94	1976,90
369,15	1995,95
369,36	1987,35
369,57	2014,38
369,78	1994,11
369,99	2013,15
370,20	2089,75
370,40	2028,72
370,61	2025,24
370,82	2127,23
371,03	2093,02
371,24	2159,17
371,45	2135,01
371,66	2017,86
371,87	2133,57
372,08	2157,54
372,29	2129,68
372,50	2165,11
372,71	2163,68
372,92	2202,80
373,13	2149,14
373,34	2181,50
373,55	2143,81
373,76	2259,93
373,97	2260,14
374,18	2185,18
374,39	2214,67
374,60	2321,99
374,81	2229,01
375,01	2193,78
375,22	2282,67
375,43	2254,81
375,64	2236,59
375,85	2234,74
376,06	2242,53
376,27	2291,06
376,48	2319,32
376,69	2334,68
376,90	2340,42
377,11	2366,63
377,32	2303,96
377,53	2380,97
377,74	2364,58
377,94	2339,19
378,15	2395,10
378,36	2418,65
378,57	2365,81
378,78	2448,96
378,99	2387,32
379,20	2540,51
379,41	2458,38
379,62	2421,52
379,83	2397,76
380,04	2443,84
380,25	2504,87
380,45	2470,06
380,66	2515,93
380,87	2482,34
381,08	2480,91
381,29	2492,17
381,50	2534,57
381,71	2539,69
381,92	2534,16
382,13	2503,23
382,34	2552,38
382,55	2553,00
382,75	2573,48
382,96	2622,01
383,17	2545,83
383,38	2650,48
383,59	2687,34
383,80	2575,12
384,01	2645,36
384,22	2716,22
384,43	2690,01
384,63	2650,28
384,84	2660,93
385,05	2694,92
385,26	2679,36
385,47	2724,21
385,68	2735,47
385,89	2775,61
386,10	2702,91
386,30	2761,07
386,51	2689,60
386,72	2745,10
386,93	2712,74
387,14	2802,85
387,35	2831,11
387,56	2883,13
387,77	2763,53
387,97	2807,15
388,18	2855,89
388,39	2856,30
388,60	2855,89
388,81	2888,86
389,02	2898,90
389,23	2899,92
389,43	2882,11
389,64	2940,47
389,85	2861,83
390,06	2964,64
390,27	2892,14
390,48	3012,77
390,69	2902,18
390,89	2994,54
391,10	2977,13
391,31	3006,01
391,52	3026,08
391,73	3054,14
391,94	3024,03
392,14	2986,76
392,35	3006,21
392,56	3069,29
392,77	3103,49
392,98	3084,24
393,19	3114,14
393,39	3170,87
393,60	3124,79
393,81	3223,30
394,02	3205,48
394,23	3172,30
394,44	3097,35
394,64	3200,98
394,85	3247,05
395,06	3231,49
395,27	3219,41
395,48	3276,14
395,69	3235,38
395,89	3296,00
396,10	3344,54
396,31	3316,69
396,52	3248,08
396,73	3283,30
396,93	3343,10
397,14	3362,15
397,35	3441,41
397,56	3376,08
397,77	3357,03
397,97	3433,01
398,18	3469,46
398,39	3398,60
398,60	3465,57
398,81	3353,34
399,01	3449,60
399,22	3437,72
399,43	3512,88
399,64	3553,43
399,85	3482,57
400,05	3438,74
400,26	3436,90
400,47	3487,90
400,68	3501,41
400,89	3662,38
401,09	3552,61
401,30	3626,34
401,51	3598,90
401,72	3578,42
401,93	3758,02
402,13	3661,77
402,34	3665,45
402,55	3690,85
402,76	3666,48
402,96	3679,59
403,17	3700,07
403,38	3761,91
403,59	3678,77
403,80	3883,36
404,00	3804,10
404,21	3733,45
404,42	3814,75
404,63	3791,61
404,83	3850,18
405,04	3753,31
405,25	3900,36
405,46	3873,73
405,66	3798,37
405,87	3853,25
406,08	3848,54
406,29	4009,72
406,49	3862,67
406,70	3942,14
406,91	3822,74
407,12	3987,60
407,32	3976,54
407,53	4074,23
407,74	4016,89
407,95	3969,37
408,15	4007,47
408,36	3933,74
408,57	4050,88
408,78	4046,79
408,98	4110,68
409,19	4059,69
409,40	4093,48
409,61	4066,86
409,81	4074,84
410,02	4103,51
410,23	4125,02
410,44	4208,17
410,64	4125,84
410,85	4103,72
411,06	4145,70
411,26	4211,24
411,47	4190,76
411,68	4267,97
411,89	4126,66
412,09	4212,26
412,30	4293,16
412,51	4153,08
412,72	4208,99
412,92	4343,54
413,13	4278,00
413,34	4244,01
413,54	4224,14
413,75	4309,95
413,96	4287,63
414,17	4220,04
414,37	4349,89
414,58	4342,10
414,79	4365,04
414,99	4326,33
415,20	4380,40
415,41	4332,07
415,61	4418,90
415,82	4452,90
416,03	4332,27
416,24	4348,86
416,44	4472,35
416,65	4506,76
416,86	4571,07
417,06	4443,89
417,27	4419,52
417,48	4441,63
417,68	4523,14
417,89	4566,56
418,10	4487,71
418,30	4596,26
418,51	4550,59
418,72	4538,91
418,92	4676,54
419,13	4540,14
419,34	4689,23
419,55	4625,34
419,75	5133,44
419,96	4646,84
420,17	4808,84
420,37	4699,27
420,58	4643,36
420,79	4619,60
420,99	4781,39
421,20	4896,08
421,41	4735,31
421,61	4815,18
421,82	4666,09
422,03	4844,47
422,23	4725,48
422,44	4884,82
422,65	4922,70
422,85	4788,56
423,06	4882,36
423,26	4928,03
423,47	5104,36
423,68	4905,50
423,88	4987,62
424,09	4932,53
424,30	5014,04
424,50	5053,36
424,71	5033,70
424,92	5109,07
425,12	5032,06
425,33	5185,46
425,54	5138,35
425,74	5189,55
425,95	5144,29
426,15	5234,61
426,36	5052,13
426,57	5261,03
426,77	5138,97
426,98	5208,60
427,19	5150,23
427,39	5269,42
427,60	5280,69
427,81	5263,89
428,01	5287,65
428,22	5491,63
428,42	5225,60
428,63	5345,81
428,84	5303,22
429,04	5330,25
429,25	5297,28
429,45	5255,70
429,66	5443,09
429,87	5466,23
430,07	5464,19
430,28	5421,18
430,49	5468,08
430,69	5503,30
430,90	5470,74
431,10	5370,80
431,31	5554,09
431,52	5663,45
431,72	5504,12
431,93	5535,66
432,13	5585,22
432,34	5700,73
432,55	5489,17
432,75	5748,03
432,96	5769,13
433,16	5695,40
433,37	5781,62
433,58	5818,28
433,78	5793,29
433,99	5495,52
434,19	5782,44
434,40	5780,60
434,60	5864,56
434,81	5811,52
435,02	5777,52
435,22	5835,07
435,43	5774,25
435,63	5783,46
435,84	5884,84
436,05	6004,44
436,25	5723,46
436,46	6023,08
436,66	5943,61
436,87	5949,35
437,07	5822,38
437,28	5930,51
437,48	6013,45
437,69	5898,15
437,90	6022,26
438,10	5999,93
438,31	5943,21
438,51	6146,57
438,72	6079,80
438,92	6036,80
439,13	6135,10
439,34	6098,44
439,54	6115,03
439,75	6048,88
439,95	6035,36
440,16	6103,56
440,36	6185,48
440,57	6129,57
440,77	6201,04
440,98	6110,73
441,18	6048,06
441,39	6131,41
441,60	6283,37
441,80	6264,74
442,01	5999,11
442,21	6260,44
442,42	6127,32
442,62	6235,66
442,83	6178,31
443,03	6265,76
443,24	6241,59
443,44	6376,56
443,65	6398,67
443,85	6297,91
444,06	6348,70
444,26	6433,28
444,47	6211,90
444,67	6446,80
444,88	6361,61
445,09	6326,79
445,29	6457,66
445,50	6481,62
445,70	6270,47
445,91	6372,87
446,11	6255,32
446,32	6471,99
446,52	6478,54
446,73	6456,02
446,93	6501,69
447,14	6515,82
447,34	6532,41
447,55	6374,71
447,75	6549,81
447,96	6653,65
448,16	6563,13
448,37	6562,51
448,57	6544,08
448,78	6616,58
448,98	6590,57
449,19	6571,93
449,39	6723,28
449,60	6598,35
449,80	6718,36
450,01	6789,22
450,21	6708,12
450,42	6818,30
450,62	6719,39
450,83	6686,82
451,03	6668,80
451,23	6804,38
451,44	6838,17
451,64	6890,19
451,85	6864,79
452,05	6961,66
452,26	6972,92
452,46	6876,46
452,67	6895,51
452,87	6781,23
453,08	6939,13
453,28	6680,27
453,49	7115,67
453,69	6981,94
453,90	7027,40
454,10	7174,24
454,31	7092,73
454,51	7018,80
454,71	7061,60
454,92	7087,82
455,12	7025,97
455,33	7175,88
455,53	7313,50
455,74	7461,36
455,94	7443,96
456,15	7631,76
456,35	7844,95
456,55	7602,26
456,76	7786,17
456,96	8125,11
457,17	7589,98
457,37	8325,81
457,58	8004,49
457,78	8243,48
457,99	8200,07
458,19	7871,16
458,39	8123,06
458,60	8475,52
458,80	8269,29
459,01	8165,46
459,21	8085,59
459,42	8442,34
459,62	8161,57
459,82	8661,47
460,03	8560,71
460,23	8549,04
460,44	8590,61
460,64	8134,94
460,85	8886,96
461,05	8349,36
461,25	8381,93
461,46	8942,46
461,66	8768,38
461,87	8592,25
462,07	8689,53
462,27	8502,55
462,48	8515,86
462,68	8699,98
462,89	8717,38
463,09	8896,17
463,29	8841,49
463,50	8740,53
463,70	8885,32
463,91	8653,08
464,11	8832,68
464,31	8906,82
464,52	9046,08
464,72	9317,85
464,93	9063,08
465,13	9302,28
465,33	9024,58
465,54	8977,48
465,74	9062,26
465,95	9288,77
466,15	9229,79
466,35	9449,33
466,56	9436,63
466,76	9593,50
466,96	9479,02
467,17	9656,17
467,37	9652,69
467,58	9617,26
467,78	9651,46
467,98	9807,31
468,19	9564,42
468,39	9975,45
468,59	10039,35
468,80	9854,42
469,00	9877,15
469,21	9811,41
469,41	9996,34
469,61	10291,45
469,82	9963,98
470,02	10443,62
470,22	10562,60
470,43	10526,97
470,63	10330,98
470,83	10868,98
471,04	10552,16
471,24	10640,22
471,45	10734,02
471,65	10934,51
471,85	10625,27
472,06	11003,33
472,26	10989,40
472,46	11000,05
472,67	11277,55
472,87	11106,13
473,07	11222,87
473,28	11152,83
473,48	11569,18
473,68	11568,98
473,89	11582,90
474,09	11803,88
474,29	11629,39
474,50	11967,31
474,70	11736,29
474,90	12095,30
475,11	12153,26
475,31	12091,62
475,51	12144,45
475,72	12251,36
475,92	12125,61
476,12	12130,73
476,33	12628,18
476,53	12583,33
476,73	12659,52
476,93	12860,83
477,14	12829,09
477,34	12912,44
477,54	13104,75
477,75	13127,27
477,95	13058,46
478,15	13270,02
478,36	13355,62
478,56	13420,54
478,76	13535,23
478,97	13541,17
479,17	13443,07
479,37	13505,94
479,57	13589,50
479,78	13560,01
479,98	13757,43
480,18	14000,32
480,39	14050,91
480,59	14259,19
480,79	14180,95
480,99	14248,33
481,20	14260,42
481,40	14327,18
481,60	14443,71
481,81	14434,29
482,01	14426,10
482,21	14612,26
482,41	14661,61
482,62	14661,00
482,82	14852,48
483,02	15157,22
483,23	15095,78
483,43	15421,82
483,63	15259,62
483,83	15400,11
484,04	15790,66
484,24	15644,02
484,44	15758,30
484,64	15674,95
484,85	15740,07
485,05	15790,04
485,25	16027,20
485,45	15905,34
485,66	16124,27
485,86	16024,95
486,06	16209,26
486,26	16365,52
486,47	16461,78
486,67	16594,69
486,87	16615,99
487,07	16684,39
487,28	16348,12
487,48	16621,93
487,68	16854,17
487,88	16804,61
488,09	16915,81
488,29	16896,36
488,49	17249,84
488,69	17173,65
488,90	17253,11
489,10	17130,44
489,30	17208,67
489,50	17319,06
489,71	17514,43
489,91	17668,24
490,11	17614,37
490,31	17694,86
490,52	17813,44
490,72	17775,55
490,92	18149,51
491,12	18068,20
491,32	18028,06
491,53	18141,32
491,73	18079,06
491,93	18142,14
492,13	18416,97
492,33	18431,10
492,54	18301,06
492,74	18528,79
492,94	18446,05
493,14	18644,09
493,35	18529,82
493,55	18590,64
493,75	18724,99
493,95	18649,62
494,15	18615,63
494,36	19048,98
494,56	18789,91
494,76	18932,24
494,96	18875,72
495,16	18967,88
495,37	19068,43
495,57	19037,51
495,77	19128,64
495,97	19204,62
496,17	19500,35
496,37	19285,31
496,58	19504,24
496,78	19219,37
496,98	19545,81
497,18	19514,07
497,38	19543,15
497,59	19820,86
497,79	19586,77
497,99	19742,01
498,19	19682,62
498,39	19687,94
498,59	19734,23
498,80	19735,05
499,00	19748,15
499,20	19877,38
499,40	19600,29
499,60	19856,70
499,80	19970,77
500,01	19927,76
500,21	19830,48
500,41	19922,84
500,61	19992,68
500,81	19804,88
501,01	20094,46
501,22	19902,77
501,42	19989,81
501,62	19966,67
501,82	19976,91
502,02	20015,21
502,22	19880,04
502,42	19933,08
502,63	20164,51
502,83	19925,71
503,03	19960,32
503,23	20071,32
503,43	19928,78
503,63	19907,28
503,83	19873,90
504,04	19559,54
504,24	19649,03
504,44	19539,87
504,64	19623,43
504,84	19482,94
505,04	19309,48
505,24	19360,47
505,44	19413,31
505,65	19380,54
505,85	19531,48
506,05	19451,20
506,25	19453,86
506,45	19322,18
506,65	19276,92
506,85	19490,93
507,05	19722,35
507,26	19614,22
507,46	19758,80
507,66	19962,78
507,86	19862,43
508,06	20149,55
508,26	19928,17
508,46	19986,95
508,66	20124,16
508,86	20263,42
509,06	20437,50
509,27	20608,91
509,47	20725,65
509,67	20778,08
509,87	20839,11
510,07	21016,05
510,27	21100,84
510,47	21235,39
510,67	21233,14
510,87	21239,69
511,07	21363,80
511,28	21429,74
511,48	21237,64
511,68	21473,77
511,88	21538,90
512,08	21470,70
512,28	21576,37
512,48	21526,20
512,68	21620,61
512,88	21718,09
513,08	22001,33
513,28	22083,45
513,48	22093,28
513,68	22219,64
513,89	22159,23
514,09	22049,87
514,29	22307,91
514,49	22271,25
514,69	22307,50
514,89	22455,16
515,09	22691,08
515,29	22685,15
515,49	22685,76
515,69	22843,45
515,89	22937,66
516,09	23057,67
516,29	22946,88
516,49	22861,07
516,69	23198,78
516,89	23195,50
517,09	23239,33
517,29	23387,19
517,50	23463,17
517,70	23472,79
517,90	23429,58
518,10	23459,48
518,30	23830,78
518,50	23517,03
518,70	23666,94
518,90	24008,95
519,10	23923,96
519,30	24143,09
519,50	24209,24
519,70	24329,25
519,90	24289,32
520,10	24590,58
520,30	24347,48
520,50	24334,17
520,70	24627,44
520,90	24408,72
521,10	24480,39
521,30	24571,94
521,50	24993,62
521,70	24980,92
521,90	24996,28
522,10	25264,15
522,30	24956,34
522,50	25247,15
522,70	25064,48
522,90	25332,14
523,10	25440,07
523,30	25451,75
523,50	25393,38
523,70	25532,23
523,90	25657,77
524,10	25733,55
524,30	25559,88
524,50	25802,77
524,70	25926,67
524,90	25749,32
525,10	25989,34
525,30	25864,82
525,50	26089,07
525,70	26118,16
525,90	25978,48
526,10	26164,03
526,30	26355,51
526,50	26329,71
526,70	26277,69
526,90	26224,65
527,10	26123,48
527,30	26257,01
527,50	26586,53
527,70	26391,76
527,90	26417,36
528,10	26257,01
528,30	26358,18
528,50	26508,29
528,70	26545,16
528,90	26671,52
529,10	26803,82
529,30	26812,62
529,50	27068,00
529,70	27089,51
529,90	27146,64
530,10	27211,98
530,29	27105,69
530,49	27190,27
530,69	27275,05
530,89	27222,42
531,09	26981,99
531,29	27056,53
531,49	27259,49
531,69	27201,33
531,89	27303,72
532,09	27326,87
532,29	27307,82
532,49	27331,58
532,69	27427,01
532,89	27557,06
533,09	27541,08
533,29	27601,50
533,49	27621,57
533,68	27766,36
533,88	28148,72
534,08	27855,86
534,28	27734,82
534,48	27741,99
534,68	27764,93
534,88	27576,72
535,08	27881,87
535,28	27980,78
535,48	27984,26
535,68	27797,69
535,88	28011,09
536,08	28035,05
536,27	28109,19
536,47	27887,40
536,67	28231,04
536,87	28098,34
537,07	28044,27
537,27	28242,51
537,47	28310,30
537,67	28053,08
537,87	28327,30
538,07	28642,89
538,27	28477,21
538,46	28640,84
538,66	28454,27
538,86	28275,49
539,06	28595,38
539,26	28579,61
539,46	28489,50
539,66	28616,47
539,86	28681,80
540,06	28803,86
540,25	28715,18
540,45	28594,76
540,65	28592,10
540,85	28750,00
541,05	28819,02
541,25	28715,39
541,45	28833,56
541,65	28738,74
541,85	28701,46
542,04	28799,56
542,24	28857,93
542,44	28880,66
542,64	28806,73
542,84	28562,41
543,04	28671,77
543,24	28537,42
543,43	28735,05
543,63	28898,89
543,83	28886,19
544,03	28761,67
544,23	28674,84
544,43	28991,25
544,63	28873,29
544,82	29206,08
545,02	28897,45
545,22	29146,90
545,42	28774,98
545,62	29241,92
545,82	29161,23
546,02	29206,49
546,21	29105,12
546,41	29025,66
546,61	29006,81
546,81	29344,53
547,01	28894,38
547,21	29271,41
547,40	29091,40
547,60	29041,63
547,80	28976,71
548,00	29229,84
548,20	29150,99
548,40	29016,65
548,59	29114,13
548,79	29170,24
548,99	29261,99
549,19	29098,77
549,39	28918,34
549,59	29257,90
549,78	28910,77
549,98	29135,22
550,18	28918,96
550,38	29149,97
550,58	29205,67
550,77	29158,57
550,97	29253,80
551,17	29011,93
551,37	29501,60
551,57	29269,57
551,76	29382,00
551,96	29310,73
552,16	29177,82
552,36	29550,14
552,56	29214,89
552,75	29361,73
552,95	29332,44
553,15	29508,77
553,35	29437,09
553,55	29148,33
553,74	29525,16
553,94	29273,26
554,14	29260,76
554,34	29199,12
554,54	29240,49
554,73	29387,33
554,93	29455,52
555,13	29769,68
555,33	29417,43
555,53	29514,51
555,72	29382,41
555,92	29369,72
556,12	29401,46
556,32	29311,55
556,51	29370,94
556,71	29428,49
556,91	29282,47
557,11	29430,74
557,30	29627,35
557,50	29506,93
557,70	29549,73
557,90	29717,26
558,10	29615,27
558,29	29377,29
558,49	29739,58
558,69	29448,15
558,89	29436,89
559,08	29685,10
559,28	29705,38
559,48	29545,23
559,68	29704,56
559,87	29843,82
560,07	29880,89
560,27	29761,29
560,47	29696,98
560,66	29787,50
560,86	29766,61
561,06	29620,18
561,25	29849,55
561,45	29821,91
561,65	29751,46
561,85	29731,18
562,04	29789,14
562,24	29931,27
562,44	30013,80
562,64	29869,42
562,83	30161,87
563,03	29971,82
563,23	29939,46
563,42	29868,40
563,62	29941,10
563,82	29716,85
564,02	29857,13
564,21	29742,65
564,41	29675,68
564,61	29930,04
564,80	29943,15
565,00	30056,40
565,20	29914,27
565,40	29805,11
565,59	29789,14
565,79	30103,91
565,99	30064,59
566,18	30031,21
566,38	29962,60
566,58	29739,58
566,78	29884,98
566,97	30086,30
567,17	30156,14
567,37	30148,35
567,56	30151,63
567,76	30067,66
567,96	30283,93
568,15	30022,20
568,35	30188,29
568,55	30167,60
568,74	29953,18
568,94	29991,27
569,14	29915,70
569,33	29784,84
569,53	30102,48
569,73	30407,63
569,92	30202,01
570,12	30239,08
570,32	30387,97
570,52	30225,97
570,71	30398,61
570,91	30241,33
571,11	30423,60
571,30	30348,03
571,50	30414,38
571,70	30600,13
571,89	30454,52
572,09	30521,70
572,28	30467,63
572,48	30495,28
572,68	30487,91
572,87	30586,62
573,07	30791,41
573,27	30447,56
573,46	30609,96
573,66	30726,90
573,86	30509,00
574,05	30874,36
574,25	30835,65
574,45	30748,41
574,64	31081,20
574,84	31144,28
575,04	31118,48
575,23	31216,78
575,43	31121,96
575,62	31219,24
575,82	30880,50
576,02	30596,86
576,21	31068,71
576,41	31167,22
576,61	31375,70
576,80	31100,25
577,00	31181,35
577,19	31243,40
577,39	31513,32
577,59	31317,13
577,78	31305,05
577,98	31352,15
578,18	31231,93
578,37	31235,21
578,57	31303,82
578,76	31249,34
578,96	30959,14
579,16	31063,18
579,35	31442,67
579,55	30951,16
579,74	31049,46
579,94	31095,13
580,14	31338,84
580,33	31324,50
580,53	31523,97
580,72	31405,81
580,92	31476,05
581,12	31407,44
581,31	31438,57
581,51	31709,72
581,70	31474,82
581,90	31915,14
582,10	31607,94
582,29	31980,06
582,49	31509,23
582,68	31797,38
582,88	31819,50
583,07	31763,18
583,27	31592,58
583,47	31826,25
583,66	31902,03
583,86	31793,90
584,05	31795,94
584,25	31659,14
584,44	32048,25
584,64	31740,65
584,84	31957,73
585,03	31870,49
585,23	31674,70
585,42	31955,48
585,62	31618,18
585,81	31850,21
586,01	31700,71
586,20	31819,09
586,40	31833,01
586,60	31786,52
586,79	32219,05
586,99	32000,54
587,18	32172,57
587,38	32226,63
587,57	32110,72
587,77	32155,36
587,96	32233,39
588,16	32063,82
588,35	32049,07
588,55	32239,74
588,75	32149,01
588,94	32198,37
589,14	32073,65
589,33	31931,93
589,53	32504,34
589,72	32012,00
589,92	32529,32
590,11	32161,71
590,31	32455,39
590,50	32423,24
590,70	32158,02
590,89	32588,30
591,09	32290,94
591,28	32349,51
591,48	32521,54
591,67	32019,58
591,87	32327,60
592,06	32352,58
592,26	32295,44
592,45	32087,37
592,65	32333,13
592,84	32266,57
593,04	32390,26
593,23	32229,29
593,43	32486,52
593,62	32186,70
593,82	32142,66
594,01	32026,75
594,21	32377,16
594,40	32317,56
594,60	32161,71
594,79	32412,59
594,99	32299,13
595,18	32532,19
595,38	32466,04
595,57	32317,56
595,77	32723,67
595,96	32756,03
596,16	32946,70
596,35	32541,81
596,55	32484,68
596,74	32552,46
596,94	32252,44
597,13	32276,60
597,33	32538,95
597,52	32314,08
597,72	32322,48
597,91	32532,39
598,11	32390,67
598,30	32315,92
598,50	32660,60
598,69	32255,10
598,88	32526,66
599,08	32130,99
599,27	32535,06
599,47	32230,73
599,66	32488,77
599,86	32268,61
600,05	32372,86
600,25	32531,16
600,44	32169,29
600,64	32362,82
600,83	32314,90
601,02	32416,89
601,22	32420,37
601,41	32063,82
601,61	32413,82
601,80	32062,38
602,00	32297,70
602,19	31992,75
602,38	32048,46
602,58	31967,56
602,77	32154,34
602,97	32302,61
603,16	32628,44
603,36	32101,50
603,55	32490,61
603,74	31883,39
603,94	32239,12
604,13	32234,00
604,33	32123,62
604,52	31956,71
604,72	31962,24
604,91	31808,64
605,10	32125,05
605,30	31637,23
605,49	31847,35
605,69	31940,33
605,88	31789,19
606,07	32087,78
606,27	32050,71
606,46	31869,47
606,66	31997,67
606,85	31570,46
607,04	31800,65
607,24	31568,82
607,43	32026,14
607,63	31590,94
607,82	31747,00
608,01	31958,55
608,21	31723,45
608,40	31912,27
608,60	31557,76
608,79	31801,27
608,98	31447,17
609,18	31784,48
609,37	31560,63
609,57	31165,17
609,76	31478,10
609,95	31340,68
610,15	31502,67
610,34	31488,34
610,53	31297,06
610,73	30942,35
610,92	31152,27
611,11	31149,81
611,31	31230,09
611,50	31096,15
611,70	31334,54
611,89	31353,99
612,08	31355,22
612,28	31206,33
612,47	31381,03
612,66	31317,13
612,86	31598,52
613,05	31293,99
613,24	31306,07
613,44	31448,81
613,63	31269,82
613,82	31492,03
614,02	31632,11
614,21	31327,98
614,41	31528,68
614,60	31794,51
614,79	31537,69
614,99	31641,73
615,18	32042,52
615,37	31804,75
615,57	32467,27
615,76	31986,20
615,95	31909,61
616,15	31925,17
616,34	32516,42
616,53	32407,88
616,73	32635,61
616,92	32530,75
617,11	32410,95
617,30	32491,64
617,50	32487,13
617,69	32678,00
617,88	32835,29
618,08	32588,71
618,27	32963,90
618,46	32906,15
618,66	32845,94
618,85	32957,35
619,04	32940,96
619,24	33223,38
619,43	33369,81
619,62	33155,18
619,82	33270,48
620,01	33372,88
620,20	33645,05
620,39	33364,48
620,59	33578,50
620,78	33743,56
620,97	33876,88
621,17	33961,88
621,36	34305,93
621,55	33868,69
621,74	34269,28
621,94	34106,67
622,13	34463,01
622,32	34282,38
622,52	34129,40
622,71	34211,32
622,90	34080,45
623,09	34039,90
623,29	34153,57
623,48	34116,91
623,67	34366,35
623,86	34233,64
624,06	34277,67
624,25	34378,64
624,44	34451,95
624,64	34494,76
624,83	34406,69
625,02	34128,99
625,21	34540,22
625,41	34570,53
625,60	34668,22
625,79	34584,05
625,98	34631,77
626,18	35206,43
626,37	34712,46
626,56	34542,47
626,75	35075,56
626,95	34379,05
627,14	34542,27
627,33	34886,33
627,52	34952,89
627,72	34917,87
627,91	35149,70
628,10	35157,68
628,29	35225,68
628,49	35000,61
628,68	34939,58
628,87	34973,98
629,06	35328,69
629,25	35006,95
629,45	34779,01
629,64	34878,34
629,83	35060,41
630,02	34754,44
630,22	34862,37
630,41	34904,35
630,60	34665,15
630,79	34487,18
630,98	34577,90
631,18	34534,90
631,37	34612,11
631,56	34649,99
631,75	34916,23
631,94	34766,73
632,14	34550,87
632,33	34263,54
632,52	34768,57
632,71	34971,52
632,90	34864,82
633,10	34820,38
633,29	34602,28
633,48	34801,75
633,67	34842,71
633,86	34837,38
634,06	34793,76
634,25	34784,34
634,44	35055,70
634,63	34655,11
634,82	35096,65
635,02	34612,92
635,21	34947,36
635,40	34806,05
635,59	34742,56
635,78	34818,54
635,97	34772,67
636,17	34288,53
636,36	34893,29
636,55	34388,67
636,74	34760,99
636,93	34126,94
637,12	34480,42
637,32	34755,46
637,51	34375,97
637,70	34276,03
637,89	34467,31
638,08	34350,38
638,27	34495,37
638,47	34253,51
638,66	34445,81
638,85	34056,70
639,04	34464,45
639,23	34026,18
639,42	34229,75
639,62	34237,12
639,81	34125,30
640,00	34155,20
640,19	33778,17
640,38	33996,90
640,57	34153,77
640,76	34019,63
640,95	34163,81
641,15	34071,85
641,34	34203,74
641,53	34209,68
641,72	34180,39
641,91	34440,49
642,10	34186,95
642,29	34350,17
642,49	34310,64
642,68	34059,15
642,87	34464,86
643,06	34480,01
643,25	34412,22
643,44	33996,28
643,63	34047,48
643,82	33911,29
644,01	34136,57
644,21	33983,38
644,40	34070,83
644,59	33738,85
644,78	33949,79
644,97	33601,43
645,16	33968,02
645,35	33745,20
645,54	34132,88
645,73	33835,72
645,92	34200,67
646,12	33972,12
646,31	33752,78
646,50	33842,68
646,69	34100,32
646,88	33680,07
647,07	33703,83
647,26	33464,22
647,45	33130,81
647,64	33307,34
647,83	33452,75
648,02	33484,08
648,22	33482,24
648,41	33593,65
648,60	33644,03
648,79	33760,56
648,98	33746,84
649,17	33344,82
649,36	33689,91
649,55	33530,57
649,74	33453,77
649,93	33256,55
650,12	33801,31
650,31	33702,19
650,50	33364,07
650,69	33430,43
650,88	33873,81
651,08	33170,95
651,27	33801,31
651,46	33556,99
651,65	33363,25
651,84	33230,55
652,03	33486,13
652,22	33198,39
652,41	33116,47
652,60	33331,31
652,79	33367,76
652,98	33146,99
653,17	33112,38
653,36	33019,81
653,55	33084,94
653,74	33115,04
653,93	33338,27
654,12	32958,37
654,31	33348,71
654,50	33274,78
654,69	33102,96
654,88	33011,00
655,07	32825,46
655,26	32478,12
655,45	32958,37
655,64	32717,12
655,83	33054,83
656,02	32823,61
656,21	32947,93
656,40	32843,68
656,59	33175,46
656,78	32737,39
656,97	33021,45
657,17	32906,35
657,36	32825,66
657,55	32436,55
657,74	32906,35
657,93	32816,65
658,12	32899,39
658,31	32895,70
658,50	33050,32
658,69	32628,85
658,87	33137,36
659,06	32620,46
659,25	32840,41
659,44	32641,35
659,63	32775,69
659,82	32883,82
660,01	32663,05
660,20	32660,39
660,39	32659,78
660,58	32528,09
660,77	32406,03
660,96	32339,88
661,15	31971,04
661,34	32225,40
661,53	32063,82
661,72	32047,43
661,91	32299,54
662,10	32048,66
662,29	32152,09
662,48	32001,97
662,67	32517,24
662,86	32237,90
663,05	32446,99
663,24	32562,70
663,43	32162,12
663,62	32207,59
663,81	32036,99
664,00	32371,01
664,19	32084,50
664,38	32098,43
664,57	32074,06
664,76	32115,02
664,94	31923,33
665,13	31774,24
665,32	31962,03
665,51	32103,34
665,70	31991,12
665,89	31941,96
666,08	31865,78
666,27	31838,54
666,46	31682,69
666,65	31445,95
666,84	31518,03
667,03	31651,36
667,22	31563,09
667,41	31559,20
667,60	31549,98
667,78	31303,00
667,97	31365,87
668,16	31366,69
668,35	31324,50
668,54	30891,97
668,73	31280,67
668,92	30947,67
669,11	31098,61
669,30	30892,38
669,49	30923,30
669,68	30924,94
669,86	31028,57
670,05	30872,10
670,24	30720,35
670,43	30774,42
670,62	31039,22
670,81	30997,65
671,00	31015,46
671,19	31089,19
671,38	30821,72
671,57	31061,13
671,75	30985,15
671,94	30664,85
672,13	30944,19
672,32	30795,72
672,51	30643,96
672,70	31010,14
672,89	30591,53
673,08	30570,23
673,26	30780,56
673,45	30381,41
673,64	30822,13
673,83	30666,28
674,02	30785,48
674,21	30685,53
674,40	30984,95
674,59	30797,97
674,77	31019,76
674,96	30698,85
675,15	30681,44
675,34	30414,79
675,53	30481,56
675,72	30057,42
675,91	30436,50
676,09	30586,21
676,28	30652,15
676,47	30076,06
676,66	30210,20
676,85	30276,35
677,04	30460,87
677,22	30181,12
677,41	30163,51
677,60	30268,36
677,79	30122,96
677,98	29875,77
678,17	30029,57
678,36	30041,04
678,54	29879,04
678,73	29591,10
678,92	29661,35
679,11	29796,92
679,30	29628,78
679,48	29812,28
679,67	29691,86
679,86	29823,54
680,05	29415,18
680,24	29357,63
680,43	29357,63
680,61	29290,05
680,80	29321,59
680,99	29464,13
681,18	29356,81
681,37	29415,79
681,55	29778,08
681,74	29260,35
681,93	29586,80
682,12	29588,23
682,31	29475,39
682,49	29515,12
682,68	29171,47
682,87	29298,45
683,06	29343,91
683,25	29016,24
683,43	29413,13
683,62	29017,67
683,81	29375,45
684,00	29091,60
684,19	29066,41
684,37	28746,93
684,56	28762,49
684,75	28932,88
684,94	28959,92
685,12	29096,11
685,31	29107,17
685,50	29135,63
685,69	29165,53
685,88	28883,94
686,06	29015,01
686,25	28930,22
686,44	29273,26
686,63	29088,12
686,81	29290,46
687,00	29141,57
687,19	29185,81
687,38	29003,74
687,56	29070,92
687,75	28967,08
687,94	29141,78
688,13	28780,31
688,31	29059,04
688,50	28876,77
688,69	29044,50
688,88	28886,60
689,06	28764,34
689,25	28593,53
689,44	28540,29
689,63	28429,49
689,81	28618,72
690,00	28398,57
690,19	28679,34
690,38	28522,06
690,56	28413,11
690,75	28476,39
690,94	28281,22
691,13	28336,92
691,31	28440,35
691,50	28340,00
691,69	28274,46
691,87	28289,41
692,06	28321,36
692,25	28323,61
692,44	28258,49
692,62	28086,05
692,81	28401,44
693,00	28170,83
693,18	28374,61
693,37	28222,44
693,56	28054,92
693,75	28026,45
693,93	28210,97
694,12	27916,07
694,31	27887,40
694,49	27658,23
694,68	27976,89
694,87	27558,70
695,05	27953,54
695,24	27898,86
695,43	27872,24
695,62	27718,03
695,80	27791,96
695,99	27697,34
696,18	27796,47
696,36	27904,39
696,55	27855,24
696,74	27637,34
696,92	27868,14
697,11	27842,75
697,30	27770,66
697,48	27525,11
697,67	27666,42
697,86	27580,00
698,04	27616,24
698,23	27368,85
698,42	27626,07
698,60	27358,61
698,79	27398,14
698,98	27242,29
699,16	27144,39
699,35	27232,86
699,54	27190,68
699,72	27215,66
699,91	27569,55
700,10	27218,32
700,28	27118,79
700,47	27128,42
700,66	27209,31
700,84	27034,62
701,03	26967,04
701,21	26932,84
701,40	27381,34
701,59	26816,10
701,77	27007,18
701,96	26938,57
702,15	26928,33
702,33	26823,27
702,52	26806,27
702,71	26564,00
702,89	26880,82
703,08	26678,27
703,26	26783,74
703,45	26960,69
703,64	26878,77
703,82	26738,69
704,01	26809,75
704,20	26702,24
704,38	26831,46
704,57	26653,49
704,75	26747,50
704,94	26819,79
705,13	26887,37
705,31	26959,46
705,50	26996,94
705,68	26963,15
705,87	27117,15
706,06	26809,34
706,24	26883,89
706,43	26371,28
706,61	26652,88
706,80	26418,80
706,99	26568,71
707,17	26516,89
707,36	26650,63
707,54	26399,96
707,73	26574,44
707,92	26485,97
708,10	26486,99
708,29	26353,88
708,47	26407,53
708,66	26386,44
708,84	26473,89
709,03	26353,47
709,22	26397,50
709,40	26337,29
709,59	26514,03
709,77	26428,63
709,96	26519,35
710,14	26235,71
710,33	26376,81
710,52	26155,63
710,70	26363,30
710,89	26045,86
711,07	26019,24
711,26	26115,08
711,44	26016,78
711,63	25755,66
711,81	25866,66
712,00	25766,11
712,19	25732,52
712,37	25696,27
712,56	25874,86
712,74	25655,72
712,93	25748,29
713,11	25478,37
713,30	25596,54
713,48	25655,52
713,67	25829,19
713,85	25516,67
714,04	25648,35
714,22	25545,34
714,41	25694,23
714,59	25458,09
714,78	25615,99
714,97	25647,12
715,15	25477,96
715,34	25507,86
715,52	25518,51
715,71	25492,09
715,89	25242,44
716,08	25379,45
716,26	25407,92
716,45	25242,44
716,63	25616,40
716,82	25272,55
717,00	25443,14
717,19	25226,47
717,37	25495,78
717,56	25264,36
717,74	25413,24
717,93	25379,66
718,11	25316,38
718,30	25032,73
718,48	25254,73
718,67	25153,77
718,85	24909,24
719,04	24768,75
719,22	24752,98
719,41	24843,29
719,59	25027,20
719,78	24630,92
719,96	24663,28
720,15	24655,29
720,33	24941,39
720,52	24516,85
720,70	24633,38
720,88	24540,20
721,07	24614,13
721,25	24623,96
721,44	24605,32
721,62	24398,27
721,81	24777,35
721,99	24384,96
722,18	24323,11
722,36	24466,06
722,55	24495,55
722,73	24158,25
722,92	24527,09
723,10	24317,38
723,28	24432,68
723,47	24242,42
723,65	24341,95
723,84	24272,73
724,02	24195,52
724,21	24160,50
724,39	24077,76
724,58	23853,51
724,76	24429,81
724,94	23830,16
725,13	24290,34
725,31	23773,03
725,50	23935,84
725,68	23808,05
725,87	23663,66
726,05	23605,30
726,23	23713,02
726,42	23603,04
726,60	23634,79
726,79	23282,13
726,97	23565,36
727,16	23243,01
727,34	23445,76
727,52	23240,35
727,71	23130,99
727,89	23170,72
728,08	23261,24
728,26	23536,49
728,44	23419,14
728,63	23682,10
728,81	23265,95
729,00	23204,51
729,18	23368,96
729,36	23101,91
729,55	23192,63
729,73	23318,99
729,92	23246,08
730,10	22904,89
730,28	23444,74
730,47	23085,11
730,65	23182,19
730,84	23167,24
731,02	23134,26
731,20	23136,52
731,39	23061,56
731,57	22815,19
731,75	23313,46
731,94	22891,79
732,12	23093,71
732,31	22838,74
732,49	23099,86
732,67	22830,55
732,86	22951,59
733,04	22849,39
733,22	23215,98
733,41	22714,02
733,59	23127,10
733,78	22949,54
733,96	22748,22
734,14	22805,77
734,33	22931,52
734,51	22708,08
734,69	22627,19
734,88	22608,35
735,06	22570,25
735,24	22351,12
735,43	22488,74
735,61	22301,77
735,79	22383,07
735,98	22393,10
736,16	22483,62
736,34	22014,44
736,53	22459,46
736,71	22233,77
736,89	22388,19
737,08	22046,59
737,26	22324,91
737,44	22266,34
737,63	22251,59
737,81	22309,14
737,99	22427,51
738,18	22293,16
738,36	22436,73
738,54	22139,16
738,73	22398,84
738,91	22342,32
739,09	22334,33
739,28	22081,61
739,46	22077,31
739,64	22197,32
739,82	22151,44
740,01	21766,02
740,19	22256,71
740,37	21873,74
740,56	21848,55
740,74	21774,21
740,92	21703,96
741,11	21783,42
741,29	21837,29
741,47	21822,54
741,65	21631,67
741,84	21779,53
742,02	21832,99
742,20	21485,85
742,39	21396,15
742,57	21513,09
742,75	21396,15
742,93	21399,23
743,12	21282,90
743,30	21301,74
743,48	21555,28
743,67	21487,08
743,85	21459,85
744,03	21485,85
744,21	21286,38
744,40	21182,14
744,58	21351,10
744,76	21151,63
744,94	21290,48
745,13	21197,91
745,31	21270,41
745,49	20951,95
745,67	21019,33
745,86	21044,11
746,04	21053,12
746,22	20870,24
746,40	20813,71
746,59	20628,57
746,77	20936,79
746,95	20856,72
747,13	20871,46
747,32	20619,15
747,50	20801,01
747,68	20621,41
747,86	20590,07
748,05	20563,65
748,23	20630,42
748,41	20466,38
748,59	20460,23
748,77	20291,48
748,96	20250,72
749,14	20184,78
749,32	20462,07
749,50	20344,93
749,69	20326,09
749,87	20098,77
750,05	20355,17
750,23	20008,45
750,41	20039,99
750,60	20013,16
750,78	20007,43
750,96	20017,67
751,14	19996,37
751,32	20066,61
751,51	20052,07
751,69	20008,65
751,87	19805,70
752,05	20102,45
752,23	20134,81
752,42	19936,77
752,60	20225,94
752,78	19812,87
752,96	20022,17
753,14	19853,42
753,33	19889,26
753,51	19780,51
753,69	19934,72
753,87	19669,92
754,05	20070,09
754,23	19729,52
754,42	19913,22
754,60	19865,50
754,78	20204,65
754,96	19834,99
755,14	20189,70
755,32	20123,96
755,51	20391,62
755,69	20158,57
755,87	20426,24
756,05	20267,72
756,23	20538,87
756,41	20444,87
756,60	20634,51
756,78	20381,59
756,96	20523,51
757,14	20514,50
757,32	20562,02
757,50	20661,55
757,68	20609,53
757,87	20709,88
758,05	20878,22
758,23	20844,02
758,41	21073,39
758,59	20912,42
758,77	21118,45
758,95	21177,23
759,14	21043,70
759,32	21392,26
759,50	21421,14
759,68	21238,87
759,86	21566,95
760,04	21589,48
760,22	21525,99
760,40	21819,47
760,59	21969,58
760,77	21887,05
760,95	22073,83
761,13	22008,91
761,31	21996,41
761,49	22185,44
761,67	22417,07
761,85	22053,35
762,03	22005,83
762,22	22355,42
762,40	22256,51
762,58	22015,25
762,76	22248,31
762,94	22237,66
763,12	22137,72
763,30	22266,54
763,48	22108,64
763,66	22207,15
763,84	22256,10
764,02	22210,22
764,21	22306,07
764,39	22390,03
764,57	22383,68
764,75	22255,48
764,93	22272,27
765,11	22118,68
765,29	22339,86
765,47	22078,95
765,65	22169,47
765,83	22084,89
766,01	22162,09
766,19	22277,19
766,37	22216,98
766,56	22042,90
766,74	22214,52
766,92	21988,22
767,10	22099,63
767,28	21930,26
767,46	21941,12
767,64	21822,54
767,82	21885,00
768,00	21606,48
768,18	21806,77
768,36	21670,17
768,54	21676,32
768,72	21591,32
768,90	21578,63
769,08	21411,72
769,26	21458,82
769,44	21491,18
769,62	21430,76
769,80	21180,09
769,98	21377,31
770,16	21114,97
770,34	21083,63
770,52	21023,22
770,71	21003,15
770,89	21053,32
771,07	21147,12
771,25	20676,09
771,43	20970,38
771,61	20791,59
771,79	20697,39
771,97	20709,26
772,15	20726,67
772,33	20392,03
772,51	20536,42
772,69	20363,77
772,87	20336,53
773,05	20238,23
773,23	20474,98
773,41	20195,02
773,59	20235,16
773,77	19986,54
773,95	20232,91
774,13	19854,85
774,31	20178,43
774,49	19859,77
774,67	19713,75
774,85	19614,63
775,03	19480,07
775,21	19513,66
775,39	19754,71
775,57	19332,82
775,75	19469,22
775,93	19274,05
776,10	19218,96
776,28	19025,02
776,46	19109,39
776,64	18985,49
776,82	19211,38
777,00	20009,68
777,18	18953,75
777,36	18822,27
777,54	19117,79
777,72	18612,35
777,90	18748,95
778,08	18605,39
778,26	18448,31
778,44	18424,35
778,62	18359,63
778,80	18400,38
778,98	18360,65
779,16	18161,59
779,34	18287,13
779,52	17978,50
779,70	18173,27
779,88	17824,91
780,05	17956,18
780,23	17757,53
780,41	17993,45
780,59	17737,46
780,77	17790,09
780,95	17762,44
781,13	17661,07
781,31	17599,01
781,49	17500,10
781,67	17363,91
781,85	17533,07
782,03	17319,88
782,21	17305,13
782,39	17409,78
782,56	17321,51
782,74	17247,99
782,92	17334,83
783,10	17347,73
783,28	17107,71
783,46	17151,12
783,64	17205,80
783,82	16992,82
784,00	16984,42
784,18	16887,55
784,35	17011,04
784,53	16722,07
784,71	16750,75
784,89	16655,31
785,07	16712,65
785,25	16722,89
785,43	16715,32
785,61	16420,00
785,79	16639,54
785,96	16417,75
786,14	16405,46
786,32	16278,89
786,50	16308,79
786,68	15982,14
786,86	16045,43
787,04	15987,26
787,22	15941,39
787,39	15752,57
787,57	15848,21
787,75	15719,39
787,93	15718,16
788,11	15639,72
788,29	15812,37
788,47	15608,18
788,65	15692,36
788,82	15419,36
789,00	15726,56
789,18	15541,01
789,36	15602,25
789,54	15261,05
789,72	15326,79
789,89	15153,54
790,07	15204,94
790,25	15189,99
790,43	15139,20
790,61	15013,04
790,79	14971,68
790,96	14938,70
791,14	14975,36
791,32	14747,01
791,50	15045,20
791,68	14775,68
791,86	14799,44
792,03	14608,78
792,21	14827,70
792,39	14688,65
792,57	14748,24
792,75	14496,55
792,93	14729,20
793,10	14535,46
793,28	14699,71
793,46	14567,82
793,64	14712,61
793,82	14602,22
793,99	14761,14
794,17	14491,84
794,35	14626,18
794,53	14497,37
794,71	14395,17
794,88	14352,16
795,06	14469,51
795,24	14263,49
795,42	14471,77
795,60	14322,06
795,77	14333,73
795,95	14299,53
796,13	14284,17
796,31	14248,54
796,49	14371,62
796,66	14131,19
796,84	14233,18
797,02	14200,00
797,20	14200,41
797,37	14142,04
797,55	14055,41
797,73	13919,02
797,91	14016,30
798,08	13863,31
798,26	13880,31
798,44	13669,99
798,62	13643,16
798,80	13683,50
798,97	13711,77
799,15	13521,10
799,33	13669,58
799,51	13627,80
799,68	13609,57
799,86	13568,41
800,04	13424,23
800,22	13367,71
800,39	13363,20
800,57	13375,08
800,75	13347,84
800,93	13332,89
801,10	13441,23
801,28	13213,29
801,46	13202,64
801,63	13184,21
801,81	13356,24
801,99	13103,11
802,17	13226,60
802,34	13148,78
802,52	12976,75
802,70	13003,58
802,88	13035,53
803,05	12955,04
803,23	12865,13
803,41	12675,08
803,58	12806,56
803,76	12763,35
803,94	12925,35
804,12	12881,52
804,29	12776,25
804,47	12788,13
804,65	12740,62
804,82	12617,54
805,00	12746,15
805,18	12760,48
805,35	12697,82
805,53	12464,76
805,71	12632,08
805,89	12599,51
806,06	12450,01
806,24	12386,12
806,42	12454,11
806,59	12341,88
806,77	12419,09
806,95	12261,80
807,12	12313,00
807,30	12276,55
807,48	12144,86
807,65	12057,01
807,83	12149,98
808,01	11968,94
808,18	12018,30
808,36	11958,70
808,54	11934,95
808,71	11905,87
808,89	11943,14
809,07	11859,79
809,24	11982,26
809,42	11932,49
809,60	11807,36
809,77	11807,36
809,95	11742,44
810,13	11672,19
810,30	11763,12
810,48	11742,23
810,66	11787,90
810,83	11671,58
811,01	11635,94
811,18	11453,27
811,36	11565,49
811,54	11544,40
811,71	11561,19
811,89	11590,89
812,07	11515,11
812,24	11557,51
812,42	11585,97
812,59	11516,55
812,77	11480,91
812,95	11580,03
813,12	11554,84
813,30	11440,36
813,48	11560,78
813,65	11405,34
813,83	11482,14
814,00	11347,79
814,18	11390,19
814,36	11238,84
814,53	11340,22
814,71	11211,20
814,88	11270,59
815,06	11037,73
815,24	11143,61
815,41	11063,95
815,59	11043,26
815,76	10840,72
815,94	11005,78
816,12	10854,64
816,29	10931,85
816,47	10904,61
816,64	10940,86
816,82	10753,47
817,00	10899,90
817,17	10727,47
817,35	10915,26
817,52	10710,67
817,70	10820,44
817,87	10667,25
818,05	10719,48
818,23	10447,10
818,40	10687,73
818,58	10489,90
818,75	10507,72
818,93	10424,57
819,10	10449,56
819,28	10400,20
819,46	10412,90
819,63	10340,19
819,81	10314,59
819,98	10187,21
820,16	10198,47
820,33	10057,78
820,51	10212,40
820,68	10091,57
820,86	10171,44
821,03	10148,09
821,21	10092,59
821,39	10112,05
821,56	10162,43
821,74	9991,43
821,91	10113,48
822,09	10049,38
822,26	9991,63
822,44	9822,88
822,61	9984,87
822,79	9906,23
822,96	9937,36
823,14	9855,64
823,31	9821,44
823,49	9908,89
823,66	9933,88
823,84	9837,83
824,01	9799,12
824,19	9798,51
824,36	9903,36
824,54	9867,93
824,71	9849,91
824,89	9840,29
825,06	9877,56
825,24	9881,04
825,41	9883,50
825,59	9697,54
825,76	9863,22
825,94	9676,65
826,11	9784,99
826,29	9705,73
826,46	9683,41
826,64	9740,55
826,81	9596,58
826,99	9536,78
827,16	9540,05
827,34	9431,72
827,51	9436,84
827,69	9447,08
827,86	9363,31
828,04	9344,06
828,21	9290,41
828,39	9277,50
828,56	9291,63
828,74	9209,31
828,91	9177,15
829,09	9395,06
829,26	9282,62
829,43	9276,48
829,61	9221,39
829,78	9152,37
829,96	9313,75
830,13	9133,12
830,31	9283,03
830,48	9123,09
830,66	9127,18
830,83	9087,04
831,01	8993,86
831,18	8916,24
831,35	9029,08
831,53	8907,64
831,70	8983,62
831,88	8940,20
832,05	8904,98
832,23	8850,91
832,40	8917,06
832,57	8845,18
832,75	8739,30
832,92	8701,00
833,10	8907,44
833,27	8756,91
833,45	8659,63
833,62	8535,93
833,79	8609,66
833,97	8576,89
834,14	8524,67
834,32	8448,28
834,49	8533,89
834,66	8508,70
834,84	8452,79
835,01	8475,72
835,19	8457,70
835,36	8366,36
835,53	8517,71
835,71	8472,04
835,88	8371,69
836,06	8338,92
836,23	8359,19
836,40	8176,31
836,58	8270,93
836,75	8228,53
836,93	8233,86
837,10	8142,11
837,27	8122,24
837,45	8106,27
837,62	8029,06
837,79	8027,63
837,97	8166,28
838,14	8009,81
838,32	8037,05
838,49	7946,94
838,66	8043,60
838,84	7904,95
839,01	7983,60
839,18	7912,53
839,36	7898,61
839,53	7856,62
839,70	7977,86
839,88	7868,30
840,05	7901,68
840,23	7733,54
840,40	7777,16
840,57	7806,45
840,75	7785,35
840,92	7824,26
841,09	7824,06
841,27	7853,55
841,44	7731,08
841,61	7798,46
841,79	7743,78
841,96	7673,33
842,13	7577,69
842,31	7697,90
842,48	7601,24
842,65	7580,56
842,83	7673,12
843,00	7605,13
843,17	7654,90
843,35	7567,04
843,52	7521,98
843,69	7516,66
843,86	7522,39
844,04	7383,54
844,21	7372,69
844,38	7397,67
844,56	7353,23
844,73	7332,75
844,90	7327,63
845,08	7198,61
845,25	7263,94
845,42	7202,30
845,60	7224,41
845,77	7150,28
845,94	7202,50
846,11	7196,97
846,29	7179,97
846,46	7116,90
846,63	7088,63
846,81	7158,67
846,98	6991,36
847,15	7069,59
847,32	7026,38
847,50	6911,69
847,67	6987,46
847,84	6949,58
848,01	7027,20
848,19	6928,89
848,36	6883,63
848,53	6882,40
848,71	6936,88
848,88	6815,44
849,05	6793,93
849,22	6765,06
849,40	6805,60
849,57	6774,48
849,74	6808,06
849,91	6766,08
850,09	6679,04
850,26	6706,48
850,43	6743,35
850,60	6670,64
850,78	6749,90
850,95	6695,01
851,12	6688,05
851,29	6714,06
851,47	6751,54
851,64	6589,34
851,81	6652,21
851,98	6603,88
852,15	6682,73
852,33	6556,98
852,50	6534,45
852,67	6548,18
852,84	6606,95
853,02	6584,01
853,19	6586,47
853,36	6479,98
853,53	6424,89
853,70	6512,54
853,88	6513,56
854,05	6476,50
854,22	6438,61
854,39	6387,20
854,56	6363,86
854,74	6301,80
854,91	6364,88
855,08	6243,03
855,25	6214,15
855,42	6217,22
855,60	6245,69
855,77	6192,03
855,94	6297,50
856,11	6121,99
856,28	6144,32
856,46	6189,17
856,63	6089,23
856,80	6090,45
856,97	6173,40
857,14	6151,48
857,31	6106,63
857,49	6110,93
857,66	6108,27
857,83	5968,60
858,00	6116,87
858,17	6026,97
858,34	6033,52
858,52	5996,86
858,69	6038,44
858,86	5997,48
859,03	5961,84
859,20	5988,06
859,37	5952,63
859,55	5839,17
859,72	5958,57
859,89	5828,93
860,06	5966,35
860,23	5882,59
860,40	5816,03
860,57	5836,51
860,75	5782,44
860,92	5802,51
861,09	5805,99
861,26	5803,74
861,43	5714,24
861,60	5675,54
861,77	5696,83
861,95	5602,42
862,12	5711,58
862,29	5659,15
862,46	5663,86
862,63	5597,92
862,80	5619,42
862,97	5627,61
863,14	5556,14
863,31	5619,01
863,49	5534,43
863,66	5522,14
863,83	5540,17
864,00	5556,55
864,17	5470,53
864,34	5504,74
864,51	5452,72
864,68	5395,78
864,85	5471,97
865,02	5390,66
865,20	5466,44
865,37	5431,01
865,54	5412,17
865,71	5430,39
865,88	5400,90
866,05	5309,15
866,22	5333,12
866,39	5279,25
866,56	5306,49
866,73	5270,24
866,90	5349,70
867,07	5297,89
867,25	5247,10
867,42	5257,55
867,59	5218,22
867,76	5205,53
867,93	5121,97
868,10	5123,81
868,27	5115,01
868,44	5063,19
868,61	5054,39
868,78	5048,04
868,95	4946,87
869,12	5079,58
869,29	5021,41
869,46	4994,59
869,63	4987,01
869,80	4886,66
869,97	5024,28
870,14	4939,29
870,32	4936,01
870,49	4891,57
870,66	4895,46
870,83	4846,52
871,00	4841,81
871,17	4807,20
871,34	4851,84
871,51	4781,39
871,68	4811,09
871,85	4794,70
872,02	4870,07
872,19	4765,01
872,36	4719,95
872,53	4767,06
872,70	4786,10
872,87	4687,39
873,04	4655,65
873,21	4655,03
873,38	4678,58
873,55	4615,92
873,72	4681,86
873,89	4615,30
874,06	4556,32
874,23	4537,48
874,40	4555,50
874,57	4578,85
874,74	4594,21
874,91	4490,58
875,08	4469,90
875,25	4463,55
875,42	4532,36
875,59	4426,68
875,76	4466,21
875,93	4413,99
876,10	4426,07
876,27	4372,82
876,44	4513,93
876,61	4428,94
876,78	4385,32
876,95	4414,19
877,12	4423,20
877,29	4322,24
877,46	4377,33
877,62	4363,81
877,79	4325,51
877,96	4365,45
878,13	4327,56
878,30	4295,41
878,47	4384,91
878,64	4311,38
878,81	4341,28
878,98	4258,34
879,15	4274,11
879,32	4252,81
879,49	4258,96
879,66	4207,55
879,83	4182,36
880,00	4214,31
880,17	4144,47
880,34	4172,33
880,51	4175,60
880,67	4150,21
880,84	4057,23
881,01	4070,95
881,18	4188,71
881,35	4035,52
881,52	4181,95
881,69	4043,30
881,86	4108,84
882,03	4082,83
882,20	4084,88
882,37	4028,76
882,54	4066,86
882,70	4035,73
882,87	3962,41
883,04	4018,11
883,21	4009,72
883,38	3936,81
883,55	3964,25
883,72	3911,01
883,89	3944,39
884,06	3898,72
884,23	3914,08
884,39	3878,44
884,56	3969,78
884,73	3980,02
884,90	3931,49
885,07	3940,29
885,24	3917,35
885,41	3929,85
885,58	3871,89
885,74	3815,57
885,91	3899,33
886,08	3868,82
886,25	3840,97
886,42	3804,72
886,59	3851,00
886,76	3814,96
886,93	3765,60
887,09	3852,64
887,26	3907,32
887,43	3751,06
887,60	3827,45
887,77	3761,91
887,94	3764,58
888,10	3848,95
888,27	3803,90
888,44	3788,33
888,61	3644,36
888,78	3631,66
888,95	3737,75
889,12	3663,61
889,28	3725,46
889,45	3656,65
889,62	3656,44
889,79	3642,93
889,96	3634,12
890,13	3631,46
890,29	3641,49
890,46	3666,27
890,63	3638,83
890,80	3606,68
890,97	3593,16
891,13	3536,43
891,30	3562,44
891,47	3627,98
891,64	3507,97
891,81	3478,88
891,98	3527,01
892,14	3468,64
892,31	3450,62
892,48	3449,39
892,65	3439,97
892,82	3394,71
892,98	3387,75
893,15	3417,04
893,32	3437,11
>>>>>End Processed Spectral Data<<<<<
