SpectraSuite Datei
++++++++++++++++++++++++++++++++++++
Datum: Thu Mar 09 11:04:39 CET 2017
Benutzer: Admin
Dark-Spektrum vorhanden: Ja
Referenz-Spektrum vorhanden: Nein
Zahl der probierten Teilspektren: 1
Spektrometer: USB4F05832
Integrationszeit (usec): 100000 (USB4F05832)
Spektren Durchschnitt berechnet: 40 (USB4F05832)
Boxcar Glttung: 0 (USB4F05832)
Dunkelstromkorrektur: Nein (USB4F05832)
Puls/Lampe aktiviert: Nein (USB4F05832)
Correct for Detector Non-linearity: Nein (USB4F05832)
Streulichtkorrektur: Nein (USB4F05832)
Anzahl Pixel in verarbeitetem Spektrum: 3648
>>>>>Begin Processed Spectral Data<<<<<
177,54	-30,31
177,75	-30,31
177,97	-30,31
178,19	7,73
178,41	-38,25
178,63	-9,88
178,85	-63,28
179,07	11,21
179,29	4,04
179,51	-8,60
179,73	-16,33
179,95	37,48
180,17	33,38
180,39	63,13
180,61	-27,90
180,83	38,19
181,05	92,88
181,27	11,83
181,49	212,27
181,71	185,19
181,92	262,65
182,14	222,10
182,36	183,55
182,58	212,68
182,80	160,87
183,02	215,80
183,24	172,95
183,46	216,98
183,68	277,04
183,90	210,07
184,12	261,22
184,34	320,30
184,56	214,83
184,78	261,73
185,00	212,94
185,21	232,80
185,43	259,32
185,65	252,36
185,87	281,49
186,09	139,52
186,31	270,95
186,53	325,83
186,75	248,78
186,97	231,83
187,19	171,98
187,41	286,51
187,63	232,09
187,84	264,75
188,06	242,63
188,28	264,60
188,50	248,83
188,72	286,41
188,94	345,90
189,16	277,91
189,38	229,17
189,60	241,51
189,82	230,24
190,03	266,75
190,25	258,76
190,47	234,39
190,69	269,41
190,91	259,84
191,13	263,88
191,35	216,27
191,57	293,99
191,79	279,14
192,01	297,37
192,22	224,10
192,44	278,32
192,66	144,74
192,88	236,75
193,10	196,14
193,32	240,84
193,54	305,10
193,76	256,46
193,98	204,44
194,19	302,08
194,41	267,36
194,63	220,52
194,85	204,34
195,07	309,91
195,29	275,14
195,51	296,70
195,73	300,18
195,94	285,49
196,16	331,00
196,38	219,03
196,60	298,44
196,82	294,55
197,04	318,51
197,26	264,90
197,48	229,58
197,69	258,97
197,91	288,25
198,13	277,50
198,35	273,30
198,57	244,78
198,79	210,38
199,01	286,61
199,22	215,80
199,44	258,81
199,66	285,54
199,88	236,03
200,10	301,21
200,32	219,59
200,54	287,33
200,75	308,48
200,97	263,16
201,19	237,92
201,41	301,77
201,63	273,40
201,85	298,90
202,06	241,66
202,28	223,02
202,50	275,66
202,72	288,25
202,94	170,14
203,16	240,59
203,38	294,60
203,59	350,51
203,81	305,76
204,03	212,94
204,25	281,90
204,47	265,26
204,69	270,84
204,90	296,49
205,12	276,89
205,34	258,15
205,56	258,30
205,78	249,39
206,00	258,76
206,21	282,01
206,43	219,90
206,65	160,05
206,87	282,77
207,09	275,30
207,30	271,00
207,52	301,67
207,74	295,78
207,96	272,43
208,18	268,59
208,40	272,58
208,61	210,48
208,83	261,58
209,05	233,16
209,27	265,67
209,49	272,89
209,70	318,72
209,92	214,42
210,14	246,37
210,36	277,96
210,58	290,97
210,79	242,68
211,01	219,24
211,23	344,47
211,45	224,41
211,67	256,51
211,88	230,19
212,10	265,83
212,32	267,62
212,54	296,96
212,76	287,84
212,97	216,88
213,19	284,00
213,41	227,27
213,63	195,53
213,85	306,17
214,06	311,19
214,28	234,24
214,50	168,45
214,72	278,78
214,94	310,06
215,15	315,69
215,37	325,27
215,59	281,24
215,81	277,09
216,02	278,63
216,24	306,27
216,46	355,68
216,68	295,83
216,90	287,89
217,11	255,07
217,33	249,80
217,55	227,79
217,77	388,55
217,98	268,39
218,20	257,89
218,42	264,60
218,64	262,14
218,85	341,81
219,07	284,16
219,29	254,72
219,51	256,82
219,73	252,16
219,94	272,89
220,16	251,44
220,38	354,04
220,60	325,73
220,81	312,67
221,03	319,12
221,25	246,37
221,47	305,30
221,68	260,35
221,90	288,76
222,12	247,75
222,34	255,48
222,55	263,78
222,77	279,04
222,99	270,74
223,21	304,43
223,42	382,25
223,64	285,38
223,86	253,59
224,08	275,66
224,29	260,71
224,51	235,06
224,73	306,63
224,94	274,79
225,16	326,29
225,38	281,29
225,60	311,60
225,81	277,91
226,03	313,60
226,25	329,52
226,47	293,22
226,68	314,21
226,90	277,50
227,12	345,75
227,33	346,62
227,55	290,56
227,77	328,70
227,99	354,20
228,20	415,38
228,42	369,97
228,64	417,22
228,86	389,17
229,07	316,46
229,29	406,47
229,51	560,58
229,72	503,80
229,94	418,45
230,16	440,47
230,38	345,34
230,59	326,65
230,81	300,64
231,03	284,26
231,24	313,24
231,46	279,65
231,68	219,64
231,89	264,90
232,11	261,06
232,33	313,49
232,55	307,55
232,76	241,87
232,98	255,23
233,20	313,44
233,41	341,14
233,63	301,72
233,85	313,44
234,06	298,18
234,28	295,06
234,50	253,74
234,71	278,98
234,93	267,41
235,15	346,06
235,37	265,67
235,58	299,98
235,80	299,41
236,02	321,84
236,23	246,22
236,45	319,59
236,67	342,27
236,88	365,97
237,10	337,97
237,32	347,23
237,53	235,26
237,75	276,73
237,97	217,14
238,18	255,02
238,40	273,66
238,62	330,85
238,83	345,95
239,05	283,59
239,27	334,13
239,48	310,88
239,70	278,98
239,92	318,51
240,13	335,82
240,35	339,60
240,57	268,69
240,78	328,08
241,00	339,45
241,22	279,55
241,43	391,73
241,65	317,69
241,87	335,41
242,08	387,94
242,30	301,21
242,52	393,06
242,73	320,56
242,95	349,28
243,16	269,62
243,38	270,08
243,60	319,69
243,81	315,34
244,03	341,40
244,25	295,57
244,46	261,99
244,68	318,61
244,90	300,69
245,11	329,47
245,33	309,35
245,55	351,94
245,76	324,96
245,98	338,32
246,19	374,57
246,41	352,56
246,63	354,20
246,84	360,80
247,06	343,85
247,28	282,67
247,49	383,94
247,71	307,40
247,92	334,95
248,14	283,75
248,36	416,86
248,57	346,77
248,79	313,08
249,01	359,16
249,22	351,89
249,44	326,19
249,65	417,58
249,87	322,56
250,09	353,68
250,30	327,62
250,52	387,48
250,73	299,67
250,95	342,16
251,17	333,56
251,38	406,83
251,60	349,54
251,81	286,10
252,03	324,81
252,25	319,94
252,46	335,76
252,68	357,22
252,89	319,74
253,11	390,14
253,33	394,69
253,54	365,92
253,76	349,08
253,97	396,08
254,19	314,41
254,41	345,34
254,62	282,82
254,84	326,91
255,05	343,75
255,27	334,18
255,49	358,04
255,70	344,62
255,92	337,35
256,13	413,79
256,35	295,01
256,56	418,20
256,78	400,74
257,00	411,33
257,21	407,60
257,43	477,13
257,64	344,62
257,86	373,34
258,08	372,12
258,29	413,18
258,51	342,88
258,72	403,96
258,94	407,08
259,15	333,20
259,37	393,72
259,59	363,87
259,80	418,66
260,02	431,51
260,23	413,79
260,45	453,83
260,66	432,63
260,88	592,07
261,09	513,37
261,31	499,91
261,53	484,09
261,74	464,22
261,96	519,06
262,17	524,79
262,39	598,16
262,60	561,04
262,82	607,79
263,03	612,19
263,25	666,82
263,46	543,68
263,68	652,33
263,90	695,49
264,11	606,66
264,33	651,71
264,54	625,40
264,76	686,74
264,97	736,35
265,19	639,79
265,40	648,75
265,62	688,63
265,83	643,11
266,05	583,93
266,26	692,57
266,48	663,90
266,70	676,44
266,91	711,82
267,13	709,88
267,34	669,33
267,56	724,11
267,77	695,69
267,99	685,10
268,20	695,34
268,42	660,52
268,63	684,79
268,85	660,21
269,06	685,15
269,28	706,65
269,49	752,07
269,71	745,97
269,92	785,65
270,14	707,37
270,35	705,88
270,57	691,86
270,78	673,73
271,00	716,28
271,21	733,22
271,43	743,72
271,64	733,58
271,86	798,35
272,07	747,66
272,29	781,25
272,50	814,99
272,72	786,68
272,93	803,32
273,15	773,01
273,36	838,69
273,58	800,19
273,79	796,56
274,01	835,88
274,22	748,23
274,44	858,51
274,65	776,90
274,87	869,62
275,08	852,67
275,30	829,58
275,51	864,29
275,73	870,18
275,94	863,58
276,16	810,23
276,37	875,40
276,59	850,83
276,80	918,46
277,02	800,65
277,23	831,68
277,45	851,95
277,66	851,75
277,88	916,62
278,09	822,00
278,30	893,02
278,52	886,72
278,73	943,04
278,95	903,41
279,16	889,79
279,38	937,25
279,59	973,35
279,81	878,68
280,02	863,07
280,24	882,62
280,45	892,61
280,67	822,77
280,88	797,38
281,09	888,46
281,31	825,74
281,52	847,35
281,74	914,11
281,95	826,97
282,17	849,80
282,38	906,43
282,60	811,61
282,81	992,14
283,02	965,67
283,24	1149,27
283,45	1260,42
283,67	1402,60
283,88	1455,44
284,10	1356,32
284,31	1137,19
284,53	987,07
284,74	886,10
284,95	928,19
285,17	804,34
285,38	852,77
285,60	851,44
285,81	825,38
286,03	820,62
286,24	810,84
286,45	754,57
286,67	732,15
286,88	887,33
287,10	787,50
287,31	815,55
287,53	770,80
287,74	842,18
287,95	820,11
288,17	828,30
288,38	818,73
288,60	803,47
288,81	803,06
289,02	824,31
289,24	866,70
289,45	831,68
289,67	852,21
289,88	844,63
290,10	847,40
290,31	840,18
290,52	906,74
290,74	905,36
290,95	849,65
291,17	883,19
291,38	811,87
291,59	888,87
291,81	826,10
292,02	734,96
292,24	829,58
292,45	871,97
292,66	849,70
292,88	847,19
293,09	802,24
293,31	781,20
293,52	744,28
293,73	806,44
293,95	812,58
294,16	729,69
294,37	771,06
294,59	749,45
294,80	745,72
295,02	764,10
295,23	695,49
295,44	711,57
295,66	657,09
295,87	716,69
296,09	623,96
296,30	618,84
296,51	682,23
296,73	628,98
296,94	557,92
297,15	503,29
297,37	535,49
297,58	492,79
297,79	524,95
298,01	422,34
298,22	464,84
298,44	383,74
298,65	427,16
298,86	443,13
299,08	442,16
299,29	444,10
299,50	362,75
299,72	424,13
299,93	471,90
300,14	392,80
300,36	445,79
300,57	419,78
300,79	494,79
301,00	394,49
301,21	494,43
301,43	411,59
301,64	490,03
301,85	439,08
302,07	460,43
302,28	492,38
302,49	477,59
302,71	508,15
302,92	528,27
303,13	656,07
303,35	836,03
303,56	1032,07
303,77	1212,24
303,99	1291,60
304,20	1216,39
304,41	1124,23
304,63	831,68
304,84	724,57
305,05	545,22
305,27	435,86
305,48	461,05
305,69	500,06
305,91	486,24
306,12	446,82
306,33	485,78
306,55	377,44
306,76	554,23
306,97	472,36
307,19	438,16
307,40	517,52
307,61	456,90
307,82	490,80
308,04	489,41
308,25	558,43
308,46	584,95
308,68	586,13
308,89	505,69
309,10	612,96
309,32	546,60
309,53	582,54
309,74	545,63
309,96	484,65
310,17	550,65
310,38	430,69
310,59	546,24
310,81	519,57
311,02	514,60
311,23	448,04
311,45	442,82
311,66	492,02
311,87	493,56
312,09	566,47
312,30	498,07
312,51	474,87
312,72	461,82
312,94	479,48
313,15	557,41
313,36	514,55
313,58	553,72
313,79	480,66
314,00	413,64
314,21	512,45
314,43	504,82
314,64	534,72
314,85	505,29
315,06	462,94
315,28	478,10
315,49	508,87
315,70	522,13
315,92	477,89
316,13	575,33
316,34	557,25
316,55	576,71
316,77	569,90
316,98	606,97
317,19	578,96
317,40	622,22
317,62	499,50
317,83	491,97
318,04	558,12
318,25	555,92
318,47	555,61
318,68	569,28
318,89	572,56
319,11	526,43
319,32	562,78
319,53	552,54
319,74	578,76
319,96	555,36
320,17	601,18
320,38	581,88
320,59	622,89
320,81	579,83
321,02	613,37
321,23	638,25
321,44	559,81
321,65	563,91
321,87	667,74
322,08	598,47
322,29	645,98
322,50	652,48
322,72	625,04
322,93	692,73
323,14	696,62
323,35	772,19
323,57	777,51
323,78	814,94
323,99	787,19
324,20	827,38
324,41	868,95
324,63	834,24
324,84	843,56
325,05	862,86
325,26	885,44
325,48	886,21
325,69	957,83
325,90	901,67
326,11	903,82
326,32	901,82
326,54	985,28
326,75	936,59
326,96	1012,62
327,17	965,92
327,39	1127,51
327,60	1320,33
327,81	1593,88
328,02	2069,63
328,23	2998,89
328,45	4959,31
328,66	10334,20
328,87	26055,08
329,08	54090,85
329,29	63972,40
329,51	64033,84
329,72	63941,68
329,93	63990,83
330,14	64070,70
330,35	64013,36
330,56	63984,69
330,78	64003,12
330,99	64023,60
331,20	63937,58
331,41	33209,61
331,62	3197,08
331,84	1893,19
332,05	1521,08
332,26	1411,41
332,47	1225,45
332,68	1147,99
332,90	1067,55
333,11	1081,79
333,32	1047,02
333,53	931,26
333,74	1029,05
333,95	951,44
334,17	943,91
334,38	914,83
334,59	904,79
334,80	828,51
335,01	852,26
335,22	762,31
335,44	822,93
335,65	815,25
335,86	829,79
336,07	761,95
336,28	822,72
336,49	789,90
336,71	812,28
336,92	811,81
337,13	749,15
337,34	750,17
337,55	777,26
337,76	762,82
337,97	778,54
338,19	697,79
338,40	726,31
338,61	768,30
338,82	780,89
339,03	841,25
339,24	773,82
339,45	732,30
339,67	766,04
339,88	722,22
340,09	767,94
340,30	748,33
340,51	756,26
340,72	712,33
340,93	838,95
341,15	751,30
341,36	742,29
341,57	790,98
341,78	805,82
341,99	783,25
342,20	782,78
342,41	741,31
342,62	809,15
342,84	762,71
343,05	749,20
343,26	726,41
343,47	769,88
343,68	752,22
343,89	730,36
344,10	736,65
344,31	780,28
344,53	684,43
344,74	698,56
344,95	688,83
345,16	760,00
345,37	795,79
345,58	821,54
345,79	815,50
346,00	724,26
346,21	780,33
346,42	727,85
346,64	727,13
346,85	764,15
347,06	687,86
347,27	773,82
347,48	769,47
347,69	774,23
347,90	767,02
348,11	732,25
348,32	732,76
348,53	724,83
348,75	805,93
348,96	759,95
349,17	730,82
349,38	768,04
349,59	726,00
349,80	823,23
350,01	763,74
350,22	712,03
350,43	763,23
350,64	756,62
350,85	752,01
351,06	742,70
351,28	768,14
351,49	762,00
351,70	745,05
351,91	739,21
352,12	797,68
352,33	766,15
352,54	777,61
352,75	788,47
352,96	747,41
353,17	875,10
353,38	811,61
353,59	773,93
353,80	792,31
354,01	856,41
354,22	798,81
354,44	941,55
354,65	939,40
354,86	956,76
355,07	987,43
355,28	924,86
355,49	897,16
355,70	953,33
355,91	905,05
356,12	904,23
356,33	963,83
356,54	860,71
356,75	866,65
356,96	912,22
357,17	920,92
357,38	971,25
357,59	1007,70
357,80	1230,06
358,01	1368,56
358,22	1487,64
358,43	1413,56
358,64	1447,35
358,85	1287,35
359,07	1181,93
359,28	1069,86
359,49	1036,58
359,70	1000,79
359,91	944,52
360,12	898,14
360,33	899,93
360,54	926,25
360,75	842,69
360,96	842,59
361,17	825,59
361,38	798,91
361,59	872,74
361,80	846,48
362,01	850,73
362,22	905,77
362,43	941,91
362,64	878,53
362,85	915,85
363,06	890,05
363,27	933,11
363,48	877,40
363,69	934,95
363,90	856,61
364,11	821,08
364,32	980,98
364,53	954,61
364,74	911,04
364,95	864,96
365,16	890,20
365,37	878,89
365,58	854,21
365,79	929,83
366,00	955,07
366,21	941,60
366,42	883,95
366,63	908,27
366,84	856,10
367,05	937,41
367,26	890,82
367,47	866,44
367,68	916,16
367,89	896,09
368,10	820,62
368,31	880,63
368,52	912,32
368,73	891,58
368,94	883,14
369,15	824,56
369,36	952,82
369,57	862,86
369,78	821,90
369,99	869,77
370,20	908,38
370,40	839,92
370,61	946,47
370,82	909,50
371,03	875,40
371,24	910,83
371,45	865,88
371,66	857,48
371,87	920,31
372,08	976,52
372,29	954,56
372,50	911,65
372,71	905,15
372,92	878,22
373,13	954,92
373,34	918,26
373,55	910,63
373,76	924,45
373,97	961,01
374,18	859,53
374,39	885,64
374,60	912,32
374,81	923,84
375,01	970,38
375,22	921,79
375,43	928,86
375,64	986,76
375,85	922,71
376,06	992,55
376,27	966,85
376,48	1021,78
376,69	917,75
376,90	911,45
377,11	971,15
377,32	974,94
377,53	925,12
377,74	940,27
377,94	988,86
378,15	946,11
378,36	940,68
378,57	989,48
378,78	995,93
378,99	958,55
379,20	915,65
379,41	950,05
379,62	944,47
379,83	957,27
380,04	965,00
380,25	995,01
380,45	969,71
380,66	946,62
380,87	972,27
381,08	843,97
381,29	966,95
381,50	883,60
381,71	970,79
381,92	1029,77
382,13	929,52
382,34	975,19
382,55	1060,54
382,75	981,75
382,96	935,92
383,17	947,34
383,38	1045,39
383,59	1022,81
383,80	892,86
384,01	928,96
384,22	900,70
384,43	942,32
384,63	1015,18
384,84	974,78
385,05	919,54
385,26	960,09
385,47	891,22
385,68	952,72
385,89	976,22
386,10	1050,35
386,30	1005,91
386,51	966,33
386,72	1031,05
386,93	1019,22
387,14	1050,45
387,35	1004,02
387,56	948,26
387,77	919,54
387,97	904,02
388,18	957,37
388,39	947,29
388,60	967,82
388,81	942,22
389,02	986,61
389,23	985,69
389,43	937,66
389,64	911,86
389,85	975,14
390,06	939,30
390,27	887,38
390,48	997,26
390,69	956,50
390,89	956,81
391,10	1072,52
391,31	1121,47
391,52	1169,54
391,73	1226,32
391,94	1280,65
392,14	1258,43
392,35	1258,94
392,56	1215,26
392,77	1106,47
392,98	1052,04
393,19	1075,34
393,39	1187,51
393,60	1387,29
393,81	1703,86
394,02	1735,30
394,23	1825,51
394,44	1734,12
394,64	1567,16
394,85	1381,30
395,06	1220,33
395,27	1034,58
395,48	992,34
395,69	1046,61
395,89	997,67
396,10	992,45
396,31	967,56
396,52	988,61
396,73	1032,74
396,93	939,45
397,14	1037,24
397,35	1032,33
397,56	999,20
397,77	1017,12
397,97	1008,88
398,18	966,54
398,39	931,36
398,60	1015,79
398,81	1034,94
399,01	1014,05
399,22	958,09
399,43	937,25
399,64	988,76
399,85	922,97
400,05	1035,76
400,26	971,04
400,47	974,83
400,68	1001,82
400,89	937,10
401,09	1018,45
401,30	969,97
401,51	1018,81
401,72	969,30
401,93	1018,56
402,13	1030,44
402,34	886,16
402,55	1066,33
402,76	1134,83
402,96	1264,21
403,17	1601,67
403,38	1985,76
403,59	2157,89
403,80	2240,63
404,00	2022,52
404,21	1838,82
404,42	1623,02
404,63	1387,29
404,83	1193,45
405,04	1064,28
405,25	1037,30
405,46	1007,91
405,66	1018,25
405,87	994,03
406,08	1074,77
406,29	1046,15
406,49	1037,45
406,70	1034,22
406,91	1045,33
407,12	1039,75
407,32	971,20
407,53	1071,86
407,74	1232,11
407,95	1190,54
408,15	1360,88
408,36	1570,59
408,57	1668,74
408,78	1767,55
408,98	1639,19
409,19	1527,02
409,40	1487,70
409,61	1293,34
409,81	1275,01
410,02	1149,32
410,23	1106,16
410,44	1139,64
410,64	1060,64
410,85	1092,08
411,06	1099,30
411,26	1053,48
411,47	1051,43
411,68	1020,09
411,89	1009,39
412,09	1128,38
412,30	1099,40
412,51	1056,34
412,72	1180,14
412,92	1087,78
413,13	1127,71
413,34	1115,43
413,54	1079,07
413,75	1138,62
413,96	1265,13
414,17	1670,48
414,37	2722,98
414,58	4196,34
414,79	5843,32
414,99	6825,37
415,20	7314,63
415,41	6626,25
415,61	5528,49
415,82	4063,12
416,03	2919,74
416,24	2267,92
416,44	1825,76
416,65	1784,91
416,86	1816,19
417,06	1942,81
417,27	2038,39
417,48	2371,19
417,68	2618,94
417,89	3126,79
418,10	3340,03
418,30	4116,37
418,51	5204,66
418,72	6599,22
418,92	8300,83
419,13	8657,84
419,34	8735,46
419,55	7594,58
419,75	6024,92
419,96	4212,83
420,17	2997,51
420,37	2200,29
420,58	1792,02
420,79	1495,68
420,99	1484,06
421,20	1390,57
421,41	1263,85
421,61	1195,25
421,82	1251,46
422,03	1192,38
422,23	1125,36
422,44	1156,39
422,65	1182,80
422,85	1172,05
423,06	1182,91
423,26	1221,10
423,47	1311,26
423,68	1289,40
423,88	1364,15
424,09	1511,35
424,30	1692,49
424,50	2114,53
424,71	2524,79
424,92	2952,76
425,12	3268,56
425,33	3612,87
425,54	3842,86
425,74	4083,04
425,95	4132,49
426,15	4420,08
426,36	4082,73
426,57	3922,22
426,77	3252,94
426,98	2744,02
427,19	2052,42
427,39	1810,66
427,60	1498,91
427,81	1312,85
428,01	1376,85
428,22	1406,19
428,42	1415,04
428,63	1883,00
428,84	2293,78
429,04	2552,84
429,25	2635,63
429,45	2508,45
429,66	2237,56
429,87	1928,93
430,07	1592,91
430,28	1486,52
430,49	1366,87
430,69	1296,88
430,90	1341,88
431,10	1331,18
431,31	1382,94
431,52	1455,44
431,72	1587,99
431,93	1886,23
432,13	2374,62
432,34	2915,59
432,55	3059,15
432,75	3141,58
432,96	3011,44
433,16	2656,42
433,37	2341,34
433,58	2239,76
433,78	2017,40
433,99	1765,40
434,19	1677,90
434,40	1520,51
434,60	1362,26
434,81	1361,23
435,02	1264,77
435,22	1160,64
435,43	1251,51
435,63	1177,07
435,84	1216,24
436,05	1198,22
436,25	1219,82
436,46	1193,61
436,66	1235,23
436,87	1236,92
437,07	1279,31
437,28	1297,64
437,48	1394,97
437,69	1407,72
437,90	1500,96
438,10	1548,42
438,31	1587,79
438,51	1612,78
438,72	1575,04
438,92	1370,30
439,13	1404,29
439,34	1305,78
439,54	1330,82
439,75	1229,60
439,95	1230,57
440,16	1167,60
440,36	1195,91
440,57	1185,77
440,77	1299,90
440,98	1182,24
441,18	1233,65
441,39	1286,23
441,60	1288,68
441,80	1345,72
442,01	1248,08
442,21	1298,31
442,42	1233,49
442,62	1254,07
442,83	1184,95
443,03	1272,86
443,24	1196,12
443,44	1184,08
443,65	1193,81
443,85	1240,66
444,06	1132,94
444,26	1191,05
444,47	1101,76
444,67	1207,48
444,88	1226,37
445,09	1304,45
445,29	1179,07
445,50	1250,69
445,70	1160,28
445,91	1179,48
446,11	1269,59
446,32	1235,69
446,52	1175,07
446,73	1216,34
446,93	1250,44
447,14	1206,77
447,34	1222,33
447,55	1219,05
447,75	1358,47
447,96	1480,78
448,16	1721,73
448,37	1953,76
448,57	2139,41
448,78	2366,58
448,98	2283,08
449,19	2284,41
449,39	2112,07
449,60	2034,45
449,80	2036,09
450,01	2208,79
450,21	2131,53
450,42	2080,22
450,62	1896,88
450,83	1818,34
451,03	1684,66
451,23	1645,95
451,44	1606,12
451,64	1633,26
451,85	1472,75
452,05	1383,04
452,26	1344,80
452,46	1381,82
452,67	1379,15
452,87	1466,86
453,08	1453,29
453,28	1519,39
453,49	1591,22
453,69	1619,58
453,90	1799,45
454,10	2046,89
454,31	2196,80
454,51	2227,42
454,71	2320,50
454,92	2150,98
455,12	1939,99
455,33	1799,75
455,53	1614,93
455,74	1530,55
455,94	1496,71
456,15	1435,06
456,35	1355,86
456,55	1257,25
456,76	1273,94
456,96	1358,06
457,17	1355,35
457,37	1411,87
457,58	1393,44
457,78	1520,26
457,99	1593,63
458,19	1684,76
458,39	1837,54
458,60	1946,29
458,80	2027,95
459,01	2061,89
459,21	1977,31
459,42	1836,52
459,62	1704,93
459,82	1737,65
460,03	1610,01
460,23	1544,48
460,44	1463,73
460,64	1409,98
460,85	1410,44
461,05	1333,13
461,25	1312,08
461,46	1438,29
461,66	1497,88
461,87	1653,84
462,07	1624,45
462,27	1564,29
462,48	1596,55
462,68	1506,95
462,89	1496,25
463,09	1423,70
463,29	1494,45
463,50	1473,56
463,70	1479,15
463,91	1488,98
464,11	1466,04
464,31	1502,34
464,52	1539,61
464,72	1640,78
464,93	2114,07
465,13	3074,46
465,33	4389,77
465,54	5712,14
465,74	6839,91
465,95	7597,50
466,15	7102,77
466,35	6370,21
466,56	4892,44
466,76	3809,27
466,96	2862,91
467,17	2363,30
467,37	2049,50
467,58	1814,81
467,78	1713,23
467,98	1591,63
468,19	1561,22
468,39	1567,31
468,59	1595,21
468,80	1701,61
469,00	1833,90
469,21	1801,85
469,41	1934,26
469,61	1999,02
469,82	1836,93
470,02	1795,35
470,22	1785,73
470,43	1719,63
470,63	1761,05
470,83	1714,56
471,04	1723,06
471,24	1700,43
471,45	1701,15
471,65	1540,79
471,85	1620,76
472,06	1605,10
472,26	1528,04
472,46	1635,66
472,67	1650,66
472,87	1682,51
473,07	1663,77
473,28	1814,50
473,48	2088,47
473,68	2438,57
473,89	2957,22
474,09	3332,51
474,29	3512,22
474,50	3400,50
474,70	3087,21
474,90	2799,06
475,11	2383,94
475,31	2200,54
475,51	2004,09
475,72	1943,83
475,92	1891,66
476,12	1905,79
476,33	1894,93
476,53	1872,41
476,73	1895,45
476,93	1751,68
477,14	1775,18
477,34	1847,06
477,54	1854,90
477,75	1844,50
477,95	1861,14
478,15	1868,52
478,36	1861,55
478,56	1917,41
478,76	1851,77
478,97	1914,95
479,17	1975,83
479,37	1858,02
479,57	1812,71
479,78	1862,22
479,98	1851,31
480,18	1816,29
480,39	1826,79
480,59	1838,00
480,79	1896,83
480,99	1820,64
481,20	1897,34
481,40	1895,55
481,60	1884,95
481,81	1878,65
482,01	1969,53
482,21	1884,08
482,41	2040,24
482,62	2001,74
482,82	2112,43
483,02	2047,82
483,23	2098,91
483,43	2048,89
483,63	2015,97
483,83	2010,18
484,04	2041,06
484,24	2041,47
484,44	2042,29
484,64	2125,13
484,85	2031,53
485,05	2068,09
485,25	2097,22
485,45	2086,01
485,66	2056,72
485,86	2060,77
486,06	2049,10
486,26	2122,05
486,47	2106,54
486,67	2229,32
486,87	2278,98
487,07	2323,01
487,28	2507,64
487,48	2494,94
487,68	2553,97
487,88	2535,28
488,09	2587,45
488,29	2473,49
488,49	2460,33
488,69	2311,13
488,90	2276,11
489,10	2204,08
489,30	2286,35
489,50	2172,08
489,71	2231,98
489,91	2227,27
490,11	2255,07
490,31	2233,77
490,52	2275,65
490,72	2272,84
490,92	2237,71
491,12	2222,40
491,32	2334,27
491,53	2345,49
491,73	2376,00
491,93	2749,50
492,13	3025,00
492,33	3381,66
492,54	3499,16
492,74	3539,09
492,94	3399,83
493,14	3127,45
493,35	2859,63
493,55	2664,77
493,75	2455,77
493,95	2440,56
494,15	2378,87
494,36	2363,41
494,56	2326,59
494,76	2382,56
494,96	2426,79
495,16	2492,28
495,37	2518,18
495,57	2534,41
495,77	2693,54
495,97	3156,84
496,17	5450,98
496,37	10790,85
496,58	20863,37
496,78	34623,93
496,98	50346,34
497,18	60743,73
497,38	63968,30
497,59	61272,87
497,79	51017,72
497,99	38033,08
498,19	25928,82
498,39	17352,54
498,59	11982,36
498,80	8574,54
499,00	6466,67
499,20	5133,08
499,40	4155,64
499,60	3711,74
499,80	3169,64
500,01	2932,18
500,21	2730,86
500,41	2693,90
500,61	2525,91
500,81	2536,46
501,01	2510,25
501,22	2465,24
501,42	2410,25
501,62	2447,83
501,82	2436,11
502,02	2477,58
502,22	2530,37
502,42	2546,24
502,63	2543,42
502,83	2653,19
503,03	2601,74
503,23	2571,69
503,43	2596,41
503,63	2626,42
503,83	2677,21
504,04	2623,86
504,24	2663,43
504,44	2653,60
504,64	2704,45
504,84	2650,33
505,04	2702,45
505,24	2699,84
505,44	2620,68
505,65	2536,67
505,85	2622,27
506,05	2571,84
506,25	2559,30
506,45	2518,75
506,65	2516,19
506,85	2476,71
507,05	2512,45
507,26	2599,28
507,46	2555,40
507,66	2624,83
507,86	2621,35
508,06	2596,01
508,26	2560,11
508,46	2561,04
508,66	2589,96
508,86	2741,56
509,06	2807,30
509,27	2920,45
509,47	2864,55
509,67	2933,72
509,87	2916,61
510,07	2890,35
510,27	2803,11
510,47	2747,25
510,67	2757,44
510,87	2716,32
511,07	2758,56
511,28	2751,70
511,48	2781,30
511,68	2738,60
511,88	2780,99
512,08	2744,79
512,28	2781,60
512,48	2780,02
512,68	2850,72
512,88	3006,21
513,08	3275,73
513,28	4058,61
513,48	5632,94
513,68	8345,88
513,89	12060,64
514,09	15739,72
514,29	18560,23
514,49	19155,62
514,69	17665,16
514,89	14830,62
515,09	11566,62
515,29	8557,54
515,49	6573,62
515,69	5300,30
515,89	4479,93
516,09	3940,80
516,29	3596,34
516,49	3392,87
516,69	3297,33
516,89	3097,55
517,09	3100,42
517,29	3198,88
517,50	3323,85
517,70	3354,93
517,90	3395,79
518,10	3507,97
518,30	3468,34
518,50	3326,77
518,70	3278,34
518,90	3171,43
519,10	3062,99
519,30	3129,19
519,50	3056,64
519,70	3092,28
519,90	3156,02
520,10	3171,59
520,30	3227,14
520,50	3203,94
520,70	3289,04
520,90	3374,85
521,10	3329,13
521,30	3262,62
521,50	3298,15
521,70	3252,12
521,90	3220,53
522,10	3183,47
522,30	3136,77
522,50	3085,32
522,70	3081,22
522,90	3077,84
523,10	3118,44
523,30	3135,49
523,50	3134,77
523,70	3184,34
523,90	3239,63
524,10	3276,55
524,30	3337,98
524,50	3410,58
524,70	3295,74
524,90	3348,89
525,10	3410,69
525,30	3442,94
525,50	3327,28
525,70	3325,08
525,90	3229,54
526,10	3230,36
526,30	3314,69
526,50	3251,56
526,70	3269,38
526,90	3349,25
527,10	3354,47
527,30	3345,92
527,50	3358,57
527,70	3350,12
527,90	3333,48
528,10	3272,91
528,30	3215,41
528,50	3273,99
528,70	3286,27
528,90	3206,10
529,10	3240,71
529,30	3242,80
529,50	3301,94
529,70	3324,31
529,90	3389,80
530,10	3498,34
530,29	3453,18
530,49	3504,94
530,69	3418,06
530,89	3394,46
531,09	3418,98
531,29	3261,75
531,49	3378,74
531,69	3409,20
531,89	3365,38
532,09	3403,78
532,29	3319,86
532,49	3384,99
532,69	3379,71
532,89	3385,91
533,09	3356,47
533,29	3384,93
533,49	3418,52
533,68	3358,82
533,88	3421,90
534,08	3536,94
534,28	3489,89
534,48	3523,38
534,68	3423,90
534,88	3516,11
535,08	3564,95
535,28	3568,38
535,48	3584,15
535,68	3650,09
535,88	3747,78
536,08	3792,48
536,27	3720,90
536,47	3691,21
536,67	3685,93
536,87	3761,91
537,07	3636,63
537,27	3633,61
537,47	3672,98
537,67	3726,33
537,87	3768,88
538,07	3838,46
538,27	3792,99
538,46	3843,47
538,66	3874,24
538,86	3693,20
539,06	3790,28
539,26	3762,43
539,46	3758,23
539,66	3730,43
539,86	3705,65
540,06	3779,63
540,25	3803,85
540,45	3907,52
540,65	3981,20
540,85	4011,82
541,05	4034,91
541,25	3951,45
541,45	3914,33
541,65	3871,17
541,85	3900,56
542,04	3836,66
542,24	3906,50
542,44	3827,50
542,64	4078,12
542,84	4137,36
543,04	4153,23
543,24	4120,15
543,43	4229,67
543,63	4341,23
543,83	4323,31
544,03	4255,53
544,23	4353,73
544,43	4344,36
544,63	4339,08
544,82	4430,27
545,02	4298,53
545,22	4383,78
545,42	4270,63
545,62	4265,61
545,82	4227,16
546,02	4234,79
546,21	4076,38
546,41	4080,42
546,61	4065,37
546,81	4155,53
547,01	4102,95
547,21	4194,75
547,40	4236,53
547,60	4264,89
547,80	4246,92
548,00	4370,42
548,20	4688,93
548,40	4817,64
548,59	5120,28
548,79	5326,56
548,99	5303,16
549,19	5154,79
549,39	5248,94
549,59	5253,30
549,78	5131,90
549,98	5176,96
550,18	5231,18
550,38	5107,33
550,58	5095,09
550,77	5197,08
550,97	5254,78
551,17	5228,46
551,37	5359,07
551,57	5363,73
551,76	5338,49
551,96	5467,41
552,16	5548,41
552,36	5683,52
552,56	5765,80
552,75	5788,43
552,95	5855,35
553,15	5901,12
553,35	6013,25
553,55	5971,11
553,74	6092,25
553,94	5960,97
554,14	6109,71
554,34	6230,79
554,54	6418,74
554,73	6695,42
554,93	6987,41
555,13	7065,95
555,33	7077,83
555,53	6894,18
555,72	6759,17
555,92	6776,52
556,12	6930,89
556,32	6887,98
556,51	6898,79
556,71	6995,96
556,91	6973,85
557,11	7023,82
557,30	7151,51
557,50	7257,13
557,70	7169,02
557,90	7412,37
558,10	7582,09
558,29	7639,08
558,49	7767,84
558,69	7828,57
558,89	8020,72
559,08	8194,18
559,28	8432,20
559,48	8719,18
559,68	8930,83
559,87	9195,12
560,07	9290,66
560,27	9268,18
560,47	9219,24
560,66	9191,64
560,86	9103,73
561,06	9080,74
561,25	9131,33
561,45	9281,86
561,65	9437,09
561,85	9369,87
562,04	9559,15
562,24	9611,37
562,44	9895,58
562,64	10112,87
562,83	10447,81
563,03	10613,39
563,23	11012,08
563,42	11456,90
563,62	11955,27
563,82	12382,74
564,02	12874,71
564,21	13262,18
564,41	13491,51
564,61	13612,18
564,80	13750,93
565,00	13946,56
565,20	14199,64
565,40	14462,40
565,59	14918,74
565,79	15633,32
565,99	16378,73
566,18	17642,94
566,38	20924,30
566,58	34680,35
566,78	64029,74
566,97	63935,54
567,17	63988,78
567,37	64037,93
567,56	63958,06
567,76	63960,11
567,96	64029,74
568,15	64007,22
568,35	63972,40
568,55	63976,50
568,74	64023,60
568,94	63978,54
569,14	64126,00
569,33	64056,37
569,53	64009,26
569,73	63988,78
569,92	63956,02
570,12	63968,30
570,32	64025,65
570,52	64027,70
570,71	64046,13
570,91	63939,63
571,11	64054,32
571,30	64056,37
571,50	64005,17
571,70	63939,63
571,89	63953,97
572,09	63974,45
572,28	64113,71
572,48	64048,17
572,68	64099,37
572,87	64076,85
573,07	63978,54
573,27	63935,54
573,46	63923,25
573,66	64035,89
573,86	64046,13
574,05	64011,31
574,25	64058,41
574,45	64029,74
574,64	63972,40
574,84	63919,15
575,04	64039,98
575,23	63976,50
575,43	63976,50
575,62	64082,99
575,82	63927,34
576,02	64085,04
576,21	64013,36
576,41	64050,22
576,61	63988,78
576,80	63943,73
577,00	64052,27
577,19	64062,51
577,39	63976,50
577,59	64046,13
577,78	63964,21
577,98	63980,59
578,18	63966,26
578,37	63982,64
578,57	64015,41
578,76	64023,60
578,96	64095,28
579,16	64011,31
579,35	64013,36
579,55	64025,65
579,74	63935,54
579,94	64136,24
580,14	63988,78
580,33	64044,08
580,53	53320,97
580,72	64005,17
580,92	55978,05
581,12	57251,89
581,31	58869,63
581,51	60775,32
581,70	62536,42
581,90	64015,41
582,10	63999,02
582,29	63960,11
582,49	64144,43
582,68	63978,54
582,88	64027,70
583,07	63947,82
583,27	63958,06
583,47	63949,87
583,66	64054,32
583,86	64011,31
584,05	64013,36
584,25	64019,50
584,44	63968,30
584,64	64009,26
584,84	64101,42
585,03	63931,44
585,23	64070,70
585,42	64082,99
585,62	64033,84
585,81	64080,94
586,01	63951,92
586,20	63962,16
586,40	63978,54
586,60	63925,30
586,79	64029,74
586,99	64003,12
587,18	63974,45
587,38	64111,66
587,57	64101,42
587,77	63960,11
587,96	63941,68
588,16	64080,94
588,35	64054,32
588,55	63976,50
588,75	63902,77
588,94	63958,06
589,14	64005,17
589,33	64029,74
589,53	63992,88
589,72	64076,85
589,92	64105,52
590,11	64035,89
590,31	63958,06
590,50	63962,16
590,70	64007,22
590,89	63947,82
591,09	64003,12
591,28	63931,44
591,48	64128,05
591,67	63974,45
591,87	64064,56
592,06	63956,02
592,26	64023,60
592,45	64003,12
592,65	64025,65
592,84	64048,17
593,04	64003,12
593,23	63966,26
593,43	64019,50
593,62	64007,22
593,82	63994,93
594,01	63972,40
594,21	63956,02
594,40	64021,55
594,60	64097,33
594,79	64019,50
594,99	63904,82
595,18	64095,28
595,38	64017,46
595,57	64001,07
595,77	63951,92
595,96	63953,97
596,16	64011,31
596,35	63972,40
596,55	63996,98
596,74	63947,82
596,94	64033,84
597,13	63956,02
597,33	64033,84
597,52	63976,50
597,72	63994,93
597,91	63921,20
598,11	64011,31
598,30	64027,70
598,50	64021,55
598,69	64095,28
598,88	64070,70
599,08	64037,93
599,27	63986,74
599,47	64060,46
599,66	63982,64
599,86	64029,74
600,05	64001,07
600,25	64048,17
600,44	63976,50
600,64	63982,64
600,83	63939,63
601,02	64013,36
601,22	64052,27
601,41	63935,54
601,61	64001,07
601,80	63999,02
602,00	64017,46
602,19	64001,07
602,38	64037,93
602,58	64169,00
602,77	63992,88
602,97	64117,81
603,16	64037,93
603,36	63941,68
603,55	63951,92
603,74	64015,41
603,94	64056,37
604,13	63976,50
604,33	63980,59
604,52	64064,56
604,72	64066,61
604,91	64052,27
605,10	64003,12
605,30	64037,93
605,49	63933,49
605,69	63980,59
605,88	64062,51
606,07	63999,02
606,27	63915,06
606,46	64003,12
606,66	64046,13
606,85	63978,54
607,04	64068,65
607,24	64042,03
607,43	63919,15
607,63	64119,85
607,82	64058,41
608,01	64039,98
608,21	64037,93
608,40	63958,06
608,60	64070,70
608,79	64050,22
608,98	63962,16
609,18	63962,16
609,37	63968,30
609,57	64029,74
609,76	63960,11
609,95	63986,74
610,15	63972,40
610,34	63956,02
610,53	64076,85
610,73	64082,99
610,92	64064,56
611,11	64001,07
611,31	64021,55
611,50	64048,17
611,70	63960,11
611,89	64023,60
612,08	63900,72
612,28	64085,04
612,47	63888,43
612,66	64060,46
612,86	63933,49
613,05	63968,30
613,24	63960,11
613,44	63900,72
613,63	64062,51
613,82	63970,35
614,02	64050,22
614,21	64089,13
614,41	64023,60
614,60	63921,20
614,79	64017,46
614,99	63956,02
615,18	64126,00
615,37	63974,45
615,57	64003,12
615,76	64064,56
615,95	63964,21
616,15	63988,78
616,34	64001,07
616,53	63863,86
616,73	63964,21
616,92	63990,83
617,11	63943,73
617,30	64074,80
617,50	63931,44
617,69	63945,78
617,88	63929,39
618,08	63886,39
618,27	64085,04
618,46	64085,04
618,66	64035,89
618,85	64042,03
619,04	63984,69
619,24	63872,05
619,43	63982,64
619,62	63958,06
619,82	64007,22
620,01	63980,59
620,20	64152,62
620,39	64050,22
620,59	63972,40
620,78	63982,64
620,97	63921,20
621,17	63933,49
621,36	63992,88
621,55	64054,32
621,74	63953,97
621,94	64052,27
622,13	63984,69
622,32	63964,21
622,52	64021,55
622,71	63882,29
622,90	63872,05
623,09	64052,27
623,29	64046,13
623,48	64074,80
623,67	64033,84
623,86	64050,22
624,06	64078,89
624,25	64001,07
624,44	63906,86
624,64	63978,54
624,83	64048,17
625,02	63974,45
625,21	63988,78
625,41	64025,65
625,60	63968,30
625,79	64037,93
625,98	64023,60
626,18	63927,34
626,37	63992,88
626,56	64005,17
626,75	63964,21
626,95	64013,36
627,14	63964,21
627,33	64021,55
627,52	64056,37
627,72	64009,26
627,91	63947,82
628,10	64044,08
628,29	64011,31
628,49	63999,02
628,68	63929,39
628,87	64027,70
629,06	63874,10
629,25	63992,88
629,45	64021,55
629,64	63960,11
629,83	63945,78
630,02	64093,23
630,22	63956,02
630,41	64052,27
630,60	63960,11
630,79	64009,26
630,98	63966,26
631,18	64044,08
631,37	64087,09
631,56	64070,70
631,75	63919,15
631,94	64017,46
632,14	64050,22
632,33	64046,13
632,52	64095,28
632,71	63618,10
632,90	64039,98
633,10	64068,65
633,29	64021,55
633,48	64060,46
633,67	64048,17
633,86	63913,01
634,06	64080,94
634,25	64013,36
634,44	63947,82
634,63	64046,13
634,82	64046,13
635,02	63980,59
635,21	64076,85
635,40	64015,41
635,59	64062,51
635,78	63931,44
635,97	64033,84
636,17	63994,93
636,36	63923,25
636,55	64009,26
636,74	64042,03
636,93	64021,55
637,12	63925,30
637,32	64023,60
637,51	64035,89
637,70	63962,16
637,89	64005,17
638,08	64097,33
638,27	64003,12
638,47	63996,98
638,66	63994,93
638,85	64085,04
639,04	64058,41
639,23	63960,11
639,42	64039,98
639,62	63902,77
639,81	63994,93
640,00	63996,98
640,19	64013,36
640,38	64013,36
640,57	64005,17
640,76	63943,73
640,95	64056,37
641,15	64109,61
641,34	63947,82
641,53	63904,82
641,72	63906,86
641,91	63980,59
642,10	64093,23
642,29	63953,97
642,49	64050,22
642,68	64082,99
642,87	63992,88
643,06	64007,22
643,25	63988,78
643,44	63986,74
643,63	63945,78
643,82	64009,26
644,01	64042,03
644,21	64115,76
644,40	64003,12
644,59	64029,74
644,78	64021,55
644,97	63863,86
645,16	63962,16
645,35	64017,46
645,54	64005,17
645,73	64042,03
645,92	63996,98
646,12	63996,98
646,31	64054,32
646,50	64033,84
646,69	64017,46
646,88	64101,42
647,07	63980,59
647,26	57378,09
647,45	64021,55
647,64	45968,66
647,83	60048,95
648,02	7900,50
648,22	48904,98
648,41	6336,36
648,60	21950,44
648,79	6313,32
648,98	6287,01
649,17	6179,95
649,36	6159,21
649,55	6084,72
649,74	6040,07
649,93	5963,43
650,12	5954,16
650,31	5966,65
650,50	5888,52
650,69	5885,61
650,88	5964,09
651,08	5806,81
651,27	5843,42
651,46	5760,48
651,65	5734,06
651,84	5634,32
652,03	5537,14
652,22	5485,64
652,41	5415,49
652,60	5515,03
652,79	5444,58
652,98	5399,62
653,17	5375,15
653,36	5420,41
653,55	5320,83
653,74	5272,50
653,93	5272,50
654,12	5056,69
654,31	5207,11
654,50	5141,84
654,69	5118,90
654,88	5140,04
655,07	5236,76
655,26	5170,30
655,45	5254,32
655,64	5285,91
655,83	5221,09
656,02	5125,71
656,21	5107,69
656,40	4978,97
656,59	4965,86
656,78	4936,01
656,97	4923,83
657,17	4830,85
657,36	4781,29
657,55	4688,36
657,74	4746,12
657,93	4737,67
658,12	4709,87
658,31	4634,66
658,50	4735,31
658,69	4656,06
658,87	4601,79
659,06	4534,25
659,25	4627,18
659,44	4682,58
659,63	4724,77
659,82	4751,13
660,01	4678,43
660,20	4587,40
660,39	4562,00
660,58	4451,82
660,77	4410,81
660,96	4424,84
661,15	4345,38
661,34	4278,77
661,53	4298,12
661,72	4242,93
661,91	4212,21
662,10	4095,17
662,29	4090,77
662,48	4126,09
662,67	4139,15
662,86	4125,07
663,05	4114,37
663,24	4186,30
663,43	4044,89
663,62	4031,07
663,81	4047,55
664,00	4018,78
664,19	3968,76
664,38	3909,57
664,57	3881,72
664,76	3938,60
664,94	3926,37
665,13	3895,29
665,32	3939,06
665,51	4007,47
665,70	3947,51
665,89	3849,77
666,08	3935,79
666,27	4075,92
666,46	4301,14
666,65	4748,11
666,84	5012,10
667,03	5221,04
667,22	5275,62
667,41	4949,74
667,60	4650,63
667,78	4223,83
667,97	3999,43
668,16	3821,97
668,35	3710,71
668,54	3587,53
668,73	3501,05
668,92	3513,90
669,11	3488,92
669,30	3290,78
669,49	3367,99
669,68	3330,41
669,86	3269,58
670,05	3333,43
670,24	3293,75
670,43	3164,73
670,62	3252,02
670,81	3187,71
671,00	3146,50
671,19	3158,43
671,38	3135,03
671,57	3189,86
671,75	3026,18
671,94	2939,45
672,13	3015,89
672,32	2942,47
672,51	2953,79
672,70	2936,48
672,89	2960,80
673,08	2930,18
673,26	2897,98
673,45	2803,57
673,64	2914,31
673,83	3224,01
674,02	3686,14
674,21	4388,69
674,40	5052,08
674,59	5311,00
674,77	5333,58
674,96	4922,55
675,15	4346,46
675,34	3715,53
675,53	3378,94
675,72	3106,26
675,91	3021,27
676,09	2844,27
676,28	2713,92
676,47	2651,40
676,66	2667,22
676,85	2586,02
677,04	2520,84
677,22	2412,76
677,41	2427,25
677,60	2349,74
677,79	2373,95
677,98	2353,01
678,17	2243,55
678,36	2272,12
678,54	2253,69
678,73	2302,33
678,92	2200,54
679,11	2248,57
679,30	2174,43
679,48	2180,98
679,67	2152,21
679,86	2160,04
680,05	2151,70
680,24	2148,37
680,43	2114,02
680,61	2104,95
680,80	2086,68
680,99	2127,23
681,18	2066,09
681,37	2137,31
681,55	2217,49
681,74	2071,93
681,93	2052,83
682,12	2055,55
682,31	2014,33
682,49	1956,32
682,68	2008,39
682,87	1960,52
683,06	1972,35
683,25	1914,34
683,43	1905,99
683,62	2052,99
683,81	1935,74
684,00	2010,70
684,19	1927,70
684,37	1985,15
684,56	1896,88
684,75	1989,81
684,94	1920,28
685,12	1895,91
685,31	1898,01
685,50	2004,81
685,69	2242,06
685,88	2718,17
686,06	3240,09
686,25	3711,33
686,44	4013,40
686,63	4025,23
686,81	3822,02
687,00	3215,93
687,19	2842,07
687,38	2502,05
687,56	2379,07
687,75	2270,58
687,94	2326,85
688,13	2179,55
688,31	2116,22
688,50	2078,64
688,69	1992,42
688,88	1900,92
689,06	1858,74
689,25	1850,13
689,44	1898,47
689,63	1822,18
689,81	1779,17
690,00	1705,39
690,19	1754,09
690,38	1672,47
690,56	1630,64
690,75	1612,42
690,94	1617,69
691,13	1589,53
691,31	1706,16
691,50	1602,07
691,69	1654,35
691,87	1701,96
692,06	1762,58
692,25	1910,91
692,44	2146,73
692,62	2341,95
692,81	2626,62
693,00	2769,93
693,18	2787,03
693,37	2681,51
693,56	2556,68
693,75	2328,90
693,93	2249,18
694,12	2089,03
694,31	2136,49
694,49	2326,95
694,68	3209,12
694,87	8357,20
695,05	25647,48
695,24	59227,41
695,43	64056,37
695,62	64017,46
695,80	64060,46
695,99	64005,17
696,18	64027,70
696,36	63929,39
696,55	64052,27
696,74	64070,70
696,92	63958,06
697,11	64021,55
697,30	63935,54
697,48	64033,84
697,67	64056,37
697,86	63996,98
698,04	33938,22
698,23	7695,96
698,42	5861,13
698,60	4397,45
698,79	3394,35
698,98	2644,80
699,16	2263,62
699,35	1997,59
699,54	1828,84
699,72	1821,67
699,91	1590,96
700,10	1574,22
700,28	1496,04
700,47	1444,74
700,66	1539,00
700,84	1441,10
701,03	1446,28
701,21	1463,43
701,40	1546,42
701,59	1685,68
701,77	2126,30
701,96	2680,79
702,15	3082,09
702,33	3363,23
702,52	3432,14
702,71	3232,36
702,89	2784,47
703,08	2436,98
703,26	2109,00
703,45	1967,33
703,64	1844,66
703,82	1776,51
704,01	1688,35
704,20	1665,31
704,38	1591,78
704,57	1697,77
704,75	1793,10
704,94	2965,36
705,13	8241,44
705,31	22280,11
705,50	46069,52
705,68	63949,87
705,87	63960,11
706,06	63976,50
706,24	64072,75
706,43	64050,22
706,61	63988,78
706,80	63996,98
706,99	59563,48
707,17	26090,51
707,36	17482,13
707,54	13571,53
707,73	10818,60
707,92	8771,86
708,10	7103,89
708,29	5737,79
708,47	4572,50
708,66	3435,67
708,84	2697,89
709,03	2123,13
709,22	1814,60
709,40	1677,18
709,59	1606,17
709,77	1631,26
709,96	1640,37
710,14	1666,79
710,33	1621,58
710,52	1601,36
710,70	1480,68
710,89	1362,26
711,07	1371,63
711,26	1296,21
711,44	1427,13
711,63	1420,42
711,81	1455,24
712,00	1421,80
712,19	1330,05
712,37	1326,57
712,56	1267,49
712,74	1329,44
712,93	1407,67
713,11	1923,96
713,30	3292,01
713,48	5767,95
713,67	8885,16
713,85	11186,11
714,04	12421,29
714,22	12309,26
714,41	11085,86
714,59	8383,82
714,78	6052,57
714,97	4620,17
715,15	3691,92
715,34	3110,56
715,52	2734,09
715,71	2387,83
715,89	2046,07
716,08	1926,01
716,26	1761,92
716,45	1597,06
716,63	1627,37
716,82	1450,83
717,00	1422,01
717,19	1422,26
717,37	1405,37
717,56	1327,29
717,74	1257,30
717,93	1343,06
718,11	1371,32
718,30	1307,73
718,48	1247,78
718,67	1279,06
718,85	1199,60
719,04	1272,56
719,22	1290,94
719,41	1299,69
719,59	1355,60
719,78	1585,13
719,96	1556,20
720,15	1611,60
720,33	1605,97
720,52	1460,66
720,70	1384,27
720,88	1367,53
721,07	1274,81
721,25	1177,43
721,44	1202,41
721,62	1231,90
721,81	1185,98
721,99	1206,20
722,18	1234,87
722,36	1191,71
722,55	1162,94
722,73	1151,57
722,92	1183,78
723,10	1153,57
723,28	1103,19
723,47	1262,32
723,65	1205,23
723,84	1171,69
724,02	1181,11
724,21	1243,89
724,39	1142,77
724,58	1140,16
724,76	1191,15
724,94	1189,92
725,13	1217,36
725,31	1288,43
725,50	1665,05
725,68	3109,94
725,87	7348,01
726,05	15119,44
726,23	25387,44
726,42	33984,20
726,60	38813,46
726,79	39335,08
726,97	35632,20
727,16	27075,12
727,34	18870,19
727,52	12975,93
727,71	9504,98
727,89	7161,39
728,08	5769,23
728,26	4748,93
728,44	3925,55
728,63	3206,40
728,81	2647,36
729,00	2241,50
729,18	1895,86
729,36	1564,24
729,55	1444,84
729,73	1431,68
729,92	1407,57
730,10	1484,37
730,28	1518,21
730,47	1598,29
730,65	1596,90
730,84	1600,85
731,02	1551,08
731,20	1458,51
731,39	1366,15
731,57	1422,31
731,75	1300,26
731,94	1241,79
732,12	1178,96
732,31	1129,30
732,49	1221,61
732,67	1116,81
732,86	1177,38
733,04	1141,18
733,22	1094,13
733,41	1104,16
733,59	1119,93
733,78	1180,30
733,96	1333,07
734,14	1586,10
734,33	1868,41
734,51	2153,34
734,69	2248,62
734,88	2225,37
735,06	2210,37
735,24	2017,40
735,43	1809,69
735,61	1766,94
735,79	1941,94
735,98	2378,00
736,16	2903,00
736,34	3518,05
736,53	4387,98
736,71	7795,44
736,89	20189,29
737,08	47714,19
737,26	64044,08
737,44	64037,93
737,63	64070,70
737,81	63943,73
737,99	64025,65
738,18	63992,88
738,36	63874,10
738,54	63992,88
738,73	64005,17
738,91	63968,30
739,09	64005,17
739,28	64013,36
739,46	64019,50
739,64	63986,74
739,82	44353,58
740,01	16482,67
740,19	5640,98
740,37	4347,89
740,56	3401,88
740,74	2737,37
740,92	2288,76
741,11	1918,03
741,29	1727,21
741,47	1674,27
741,65	1565,98
741,84	1473,82
742,02	1488,11
742,20	1477,10
742,39	1588,15
742,57	1755,47
742,75	1802,88
742,93	1761,41
743,12	1809,84
743,30	1685,53
743,48	1522,92
743,67	1419,60
743,85	1326,67
744,03	1274,96
744,21	1239,48
744,40	1256,58
744,58	1135,39
744,76	1171,49
744,94	1109,69
745,13	1194,53
745,31	1122,49
745,49	1172,92
745,67	1248,44
745,86	1230,06
746,04	1336,86
746,22	1369,58
746,40	1536,95
746,59	1577,60
746,77	1597,11
746,95	1708,36
747,13	1579,60
747,32	1606,73
747,50	1715,33
747,68	1746,41
747,86	1769,80
748,05	1788,90
748,23	1948,69
748,41	2035,12
748,59	2764,60
748,77	6897,46
748,96	19777,54
749,14	45729,50
749,32	63919,15
749,50	63992,88
749,69	64037,93
749,87	64035,89
750,05	63966,26
750,23	64082,99
750,41	63976,50
750,60	63999,02
750,78	64091,18
750,96	64013,36
751,14	63986,74
751,32	63962,16
751,51	64013,36
751,69	64048,17
751,87	64132,14
752,05	63935,54
752,23	64021,55
752,42	63976,50
752,60	64060,46
752,78	64033,84
752,96	64025,65
753,14	64019,50
753,33	59580,89
753,51	31671,73
753,69	3335,53
753,87	2760,56
754,05	2417,73
754,23	2054,37
754,42	1815,58
754,60	1679,69
754,78	1589,58
754,96	1533,47
755,14	1427,49
755,32	1446,17
755,51	1412,07
755,69	1395,33
755,87	1397,74
756,05	1409,57
756,23	1325,85
756,41	1390,67
756,60	1342,24
756,78	1322,89
756,96	1330,92
757,14	1449,91
757,32	1363,23
757,50	1395,74
757,68	1337,12
757,87	1395,84
758,05	1490,05
758,23	1413,41
758,41	1431,43
758,59	1416,89
758,77	1314,90
758,95	1467,63
759,14	1475,82
759,32	1534,49
759,50	1574,38
759,68	1869,69
759,86	2024,42
760,04	2254,10
760,22	2520,74
760,40	2665,23
760,59	2747,66
760,77	2705,21
760,95	2588,68
761,13	2592,22
761,31	2763,07
761,49	3199,29
761,67	5438,02
761,85	17890,13
762,03	64052,27
762,22	64011,31
762,40	63956,02
762,58	64076,85
762,76	64027,70
762,94	63992,88
763,12	63956,02
763,30	63941,68
763,48	64031,79
763,66	64095,28
763,84	64037,93
764,02	64003,12
764,21	64023,60
764,39	63902,77
764,57	64087,09
764,75	64093,23
764,93	64013,36
765,11	63947,82
765,29	64103,47
765,47	64017,46
765,65	63986,74
765,83	63974,45
766,01	64017,46
766,19	63988,78
766,37	63910,96
766,56	63933,49
766,74	63962,16
766,92	64058,41
767,10	63986,74
767,28	63988,78
767,46	63972,40
767,64	64027,70
767,82	63958,06
768,00	64042,03
768,18	64042,03
768,36	63990,83
768,54	63937,58
768,72	63990,83
768,90	64054,32
769,08	64087,09
769,26	63947,82
769,44	64105,52
769,62	63962,16
769,80	64013,36
769,98	63951,92
770,16	64080,94
770,34	63986,74
770,52	64060,46
770,71	64085,04
770,89	64054,32
771,07	63892,53
771,25	63988,78
771,43	64011,31
771,61	63947,82
771,79	64025,65
771,97	64009,26
772,15	63988,78
772,33	63992,88
772,51	63878,19
772,69	63960,11
772,87	63984,69
773,05	64021,55
773,23	64056,37
773,41	63935,54
773,59	64011,31
773,77	63984,69
773,95	63968,30
774,13	64031,79
774,31	63986,74
774,49	63966,26
774,67	64044,08
774,85	64046,13
775,03	64003,12
775,21	63947,82
775,39	64076,85
775,57	64066,61
775,75	63970,35
775,93	64066,61
776,10	64007,22
776,28	63902,77
776,46	64033,84
776,64	64050,22
776,82	57176,27
777,00	2789,13
777,18	1208,25
777,36	1175,69
777,54	1137,08
777,72	1134,57
777,90	1142,66
778,08	1034,12
778,26	1069,35
778,44	1007,19
778,62	1040,21
778,80	1118,50
778,98	1058,24
779,16	1131,45
779,34	1094,95
779,52	1148,45
779,70	1106,31
779,88	1108,00
780,05	1139,49
780,23	994,08
780,41	1074,11
780,59	969,92
780,77	1073,19
780,95	981,44
781,13	1014,00
781,31	950,97
781,49	997,62
781,67	921,33
781,85	1040,47
782,03	937,66
782,21	978,42
782,39	963,31
782,56	1011,49
782,74	937,76
782,92	988,81
783,10	983,13
783,28	972,38
783,46	968,18
783,64	1019,89
783,82	1023,32
784,00	1014,67
784,18	1070,22
784,35	1109,33
784,53	1061,21
784,71	1132,48
784,89	1196,73
785,07	1122,34
785,25	1080,87
785,43	1181,42
785,61	1139,23
785,79	1144,87
785,96	1144,35
786,14	1135,55
786,32	1050,86
786,50	1095,10
786,68	1133,24
786,86	987,68
787,04	986,97
787,22	1061,77
787,39	1135,85
787,57	1074,26
787,75	995,06
787,93	1155,98
788,11	1236,26
788,29	1292,78
788,47	1381,97
788,65	1379,36
788,82	1317,97
789,00	1306,55
789,18	1310,55
789,36	1122,34
789,54	1126,69
789,72	1114,04
789,89	1147,84
790,07	1172,36
790,25	1127,00
790,43	1184,65
790,61	1129,56
790,79	1249,72
790,96	1258,89
791,14	1223,56
791,32	1191,35
791,50	1339,83
791,68	1409,41
791,86	1392,52
792,03	1385,66
792,21	1390,98
792,39	1420,62
792,57	1421,14
792,75	1462,97
792,93	1729,61
793,10	2511,68
793,28	6847,90
793,46	20815,55
793,64	48902,88
793,82	63972,40
793,99	63968,30
794,17	64044,08
794,35	63964,21
794,53	64070,70
794,71	64052,27
794,88	64091,18
795,06	64029,74
795,24	64064,56
795,42	64011,31
795,60	63899,65
795,77	41125,36
795,95	11290,76
796,13	9424,44
796,31	7897,63
796,49	6841,34
796,66	5901,79
796,84	5283,96
797,02	4519,71
797,20	3978,90
797,37	3370,91
797,55	2929,31
797,73	2470,98
797,91	2206,94
798,08	2094,10
798,26	1975,11
798,44	1877,12
798,62	1932,87
798,80	2120,21
798,97	2998,33
799,15	6825,06
799,33	17462,26
799,51	35294,13
799,68	55454,69
799,86	63958,06
800,04	63986,74
800,22	64029,74
800,39	64013,36
800,57	63953,97
800,75	63978,54
800,93	64021,55
801,10	64025,65
801,28	63974,45
801,46	64042,03
801,63	63943,73
801,81	63994,93
801,99	63947,82
802,17	64009,26
802,34	63939,63
802,52	64033,84
802,70	63943,73
802,88	33441,49
803,05	9407,40
803,23	7905,72
803,41	6757,89
803,58	5939,62
803,76	5105,23
803,94	4413,27
804,12	3777,84
804,29	3266,15
804,47	2812,68
804,65	2574,45
804,82	2291,27
805,00	2159,07
805,18	2039,98
805,35	1909,53
805,53	1846,19
805,71	1815,32
805,89	1816,50
806,06	1789,16
806,24	1726,80
806,42	1815,47
806,59	1906,66
806,77	2014,48
806,95	1976,44
807,12	2148,52
807,30	2095,64
807,48	2408,77
807,65	2414,15
807,83	2626,47
808,01	2773,21
808,18	3069,29
808,36	3268,46
808,54	3728,89
808,71	5345,40
808,89	12568,49
809,07	32694,59
809,24	64021,55
809,42	63956,02
809,60	64095,28
809,77	64005,17
809,95	63976,50
810,13	64056,37
810,30	63986,74
810,48	63896,62
810,66	63978,54
810,83	63964,21
811,01	63960,11
811,18	64099,37
811,36	64126,00
811,54	63994,93
811,71	63956,02
811,89	63970,35
812,07	63984,69
812,24	63958,06
812,42	64035,89
812,59	63908,91
812,77	64087,09
812,95	63978,54
813,12	64025,65
813,30	64021,55
813,48	64029,74
813,65	64070,70
813,83	64074,80
814,00	63900,72
814,18	63915,06
814,36	64007,22
814,53	64056,37
814,71	63988,78
814,88	63970,35
815,06	64060,46
815,24	63970,35
815,41	64044,08
815,59	64025,65
815,76	64044,08
815,94	63919,15
816,12	64046,13
816,29	63931,44
816,47	64046,13
816,64	63910,96
816,82	64062,51
817,00	63976,50
817,17	64019,50
817,35	63972,40
817,52	64029,74
817,70	64029,74
817,87	63951,92
818,05	63996,98
818,23	64027,70
818,40	63964,21
818,58	64013,36
818,75	64017,46
818,93	64101,42
819,10	63943,73
819,28	64066,61
819,46	63994,93
819,63	64080,94
819,81	63931,44
819,98	64082,99
820,16	63970,35
820,33	64105,52
820,51	63931,44
820,68	63978,54
820,86	64019,50
821,03	63988,78
821,21	63992,88
821,39	63884,34
821,56	63968,30
821,74	64013,36
821,91	64048,17
822,09	64001,07
822,26	63941,68
822,44	64066,61
822,61	64064,56
822,79	63974,45
822,96	63972,40
823,14	64013,36
823,31	63984,69
823,49	63956,02
823,66	64058,41
823,84	64023,60
824,01	63943,73
824,19	64070,70
824,36	63935,54
824,54	64003,12
824,71	63927,34
824,89	63953,97
825,06	64027,70
825,24	64027,70
825,41	63927,34
825,59	63988,78
825,76	64037,93
825,94	64087,09
826,11	64023,60
826,29	64027,70
826,46	63984,69
826,64	63988,78
826,81	63970,35
826,99	63953,97
827,16	64052,27
827,34	64152,62
827,51	64042,03
827,69	63933,49
827,86	64033,84
828,04	63943,73
828,21	64050,22
828,39	63994,93
828,56	64070,70
828,74	64025,65
828,91	64017,46
829,09	63884,34
829,26	64076,85
829,43	63919,15
829,61	64019,50
829,78	63970,35
829,96	64009,26
830,13	64035,89
830,31	63910,96
830,48	63978,54
830,66	64011,31
830,83	64017,46
831,01	64056,37
831,18	64011,31
831,35	64070,70
831,53	64050,22
831,70	63933,49
831,88	63849,52
832,05	64011,31
832,23	64082,99
832,40	64017,46
832,57	63956,02
832,75	64001,07
832,92	64013,36
833,10	63937,58
833,27	63906,86
833,45	64029,74
833,62	64078,89
833,79	64003,12
833,97	64052,27
834,14	63984,69
834,32	63951,92
834,49	64105,52
834,66	64072,75
834,84	64093,23
835,01	63964,21
835,19	64132,14
835,36	63992,88
835,53	64033,84
835,71	63990,83
835,88	64082,99
836,06	64085,04
836,23	63947,82
836,40	64013,36
836,58	64003,12
836,75	64017,46
836,93	63964,21
837,10	64062,51
837,27	63996,98
837,45	64078,89
837,62	64033,84
837,79	63984,69
837,97	64009,26
838,14	63956,02
838,32	64031,79
838,49	64062,51
838,66	64019,50
838,84	63945,78
839,01	63972,40
839,18	64011,31
839,36	64076,85
839,53	64099,37
839,70	63986,74
839,88	63999,02
840,05	63999,02
840,23	64031,79
840,40	63988,78
840,57	63982,64
840,75	63968,30
840,92	63849,52
841,09	63982,64
841,27	63986,74
841,44	64033,84
841,61	63966,26
841,79	64029,74
841,96	63999,02
842,13	64066,61
842,31	64007,22
842,48	63972,40
842,65	64044,08
842,83	64003,12
843,00	63984,69
843,17	64033,84
843,35	64029,74
843,52	63923,25
843,69	63999,02
843,86	64013,36
844,04	64027,70
844,21	63990,83
844,38	63980,59
844,56	64033,84
844,73	63917,10
844,90	63956,02
845,08	62594,37
845,25	15652,63
845,42	4573,11
845,60	3692,49
845,77	2991,47
845,94	2434,73
846,11	1959,50
846,29	1659,62
846,46	1415,10
846,63	1222,18
846,81	1176,71
846,98	1044,98
847,15	1045,59
847,32	1002,12
847,50	984,66
847,67	914,78
847,84	873,05
848,01	893,58
848,19	881,50
848,36	844,48
848,53	803,42
848,71	861,53
848,88	831,17
849,05	887,08
849,22	833,63
849,40	941,20
849,57	908,17
849,74	988,20
849,91	1002,07
850,09	1079,02
850,26	1236,77
850,43	1676,01
850,60	2706,90
850,78	4910,52
850,95	8679,85
851,12	14385,09
851,29	20904,95
851,47	26776,83
851,64	29699,80
851,81	30934,16
851,98	29306,33
852,15	25690,54
852,33	20399,61
852,50	15578,03
852,67	12148,04
852,84	10133,20
853,02	8379,88
853,19	6867,35
853,36	5705,69
853,53	4938,11
853,70	4278,92
853,88	3703,09
854,05	3193,40
854,22	2838,43
854,39	2509,32
854,56	2388,96
854,74	2081,66
854,91	1950,90
855,08	1639,71
855,25	1521,90
855,42	1319,71
855,60	1118,55
855,77	936,79
855,94	866,19
856,11	761,18
856,28	762,66
856,46	666,15
856,63	665,49
856,80	623,04
856,97	488,18
857,14	597,39
857,31	588,13
857,49	484,91
857,66	563,24
857,83	583,67
858,00	576,04
858,17	484,40
858,34	607,27
858,52	452,86
858,69	537,85
858,86	475,90
859,03	515,32
859,20	510,97
859,37	510,35
859,55	514,50
859,72	558,17
859,89	533,34
860,06	627,34
860,23	530,32
860,40	531,70
860,57	543,63
860,75	506,36
860,92	463,66
861,09	581,78
861,26	487,88
861,43	488,08
861,60	457,77
861,77	472,21
861,95	465,66
862,12	451,94
862,29	415,89
862,46	457,72
862,63	481,63
862,80	433,86
862,97	360,14
863,14	393,62
863,31	434,02
863,49	322,40
863,66	370,84
863,83	409,54
864,00	429,61
864,17	445,95
864,34	386,25
864,51	409,34
864,68	455,16
864,85	529,50
865,02	515,47
865,20	627,96
865,37	707,27
865,54	1023,01
865,71	1481,71
865,88	2203,87
866,05	2958,14
866,22	3868,66
866,39	4389,16
866,56	4619,04
866,73	4529,54
866,90	4178,68
867,07	3626,80
867,25	2941,29
867,42	2267,56
867,59	2016,63
867,76	1654,86
867,93	1488,77
868,10	1336,25
868,27	1138,11
868,44	1008,42
868,61	922,66
868,78	875,10
868,95	802,60
869,12	782,22
869,29	691,55
869,46	695,80
869,63	636,97
869,80	513,84
869,97	569,49
870,14	550,39
870,32	466,89
870,49	490,54
870,66	443,54
870,83	418,60
871,00	349,90
871,17	358,45
871,34	346,77
871,51	346,16
871,68	330,70
871,85	428,64
872,02	388,81
872,19	381,69
872,36	338,73
872,53	307,76
872,70	430,33
872,87	370,32
873,04	418,25
873,21	409,18
873,38	342,47
873,55	390,65
873,72	359,16
873,89	302,18
874,06	404,83
874,23	348,51
874,40	395,72
874,57	397,15
874,74	316,56
874,91	342,01
875,08	353,74
875,25	375,19
875,42	318,00
875,59	334,64
875,76	335,87
875,93	371,55
876,10	316,82
876,27	429,82
876,44	303,46
876,61	268,69
876,78	325,32
876,95	311,19
877,12	330,75
877,29	304,53
877,46	345,39
877,62	388,65
877,79	237,36
877,96	309,09
878,13	332,28
878,30	299,82
878,47	328,55
878,64	339,66
878,81	333,15
878,98	416,61
879,15	339,96
879,32	380,26
879,49	353,79
879,66	346,47
879,83	313,03
880,00	263,93
880,17	293,83
880,34	305,71
880,51	313,65
880,67	365,41
880,84	376,26
881,01	373,86
881,18	281,03
881,35	315,44
881,52	325,27
881,69	289,02
881,86	234,59
882,03	243,71
882,20	339,76
882,37	327,62
882,54	290,76
882,70	278,37
882,87	311,04
883,04	269,15
883,21	287,69
883,38	291,27
883,55	367,87
883,72	227,73
883,89	320,30
884,06	289,48
884,23	327,73
884,39	288,35
884,56	256,61
884,73	270,38
884,90	230,09
885,07	298,03
885,24	320,25
885,41	258,76
885,58	320,97
885,74	331,62
885,91	285,08
886,08	253,64
886,25	317,28
886,42	175,97
886,59	329,93
886,76	330,90
886,93	288,46
887,09	271,92
887,26	276,12
887,43	341,60
887,60	228,30
887,77	217,49
887,94	240,38
888,10	246,47
888,27	251,49
888,44	299,98
888,61	301,41
888,78	309,24
888,95	235,21
889,12	290,04
889,28	350,66
889,45	260,91
889,62	228,14
889,79	263,27
889,96	324,30
890,13	273,81
890,29	242,33
890,46	248,98
890,63	227,99
890,80	265,62
890,97	261,06
891,13	271,66
891,30	296,80
891,47	275,96
891,64	220,26
891,81	271,05
891,98	271,41
892,14	242,17
892,31	289,43
892,48	257,38
892,65	245,35
892,82	376,78
892,98	248,01
893,15	333,77
893,32	351,48
>>>>>End Processed Spectral Data<<<<<
