SpectraSuite Datei
++++++++++++++++++++++++++++++++++++
Datum: Thu Mar 09 10:33:42 CET 2017
Benutzer: Admin
Dark-Spektrum vorhanden: Nein
Referenz-Spektrum vorhanden: Nein
Zahl der probierten Teilspektren: 1
Spektrometer: USB4F05832
Integrationszeit (usec): 100000 (USB4F05832)
Spektren Durchschnitt berechnet: 10 (USB4F05832)
Boxcar Glättung: 0 (USB4F05832)
Dunkelstromkorrektur: Nein (USB4F05832)
Puls/Lampe aktiviert: Nein (USB4F05832)
Correct for Detector Non-linearity: Nein (USB4F05832)
Streulichtkorrektur: Nein (USB4F05832)
Anzahl Pixel in verarbeitetem Spektrum: 3648
>>>>>Begin Processed Spectral Data<<<<<
177,54	1324,22
177,75	1324,22
177,97	1324,22
178,19	1341,62
178,41	1332,82
178,63	1543,76
178,85	1419,04
179,07	1452,01
179,29	1459,38
179,51	1398,56
179,73	1534,95
179,95	1477,61
180,17	1457,33
180,39	1536,80
180,61	1484,37
180,83	1539,87
181,05	1473,31
181,27	1486,62
181,49	1471,26
181,71	1491,95
181,92	1611,96
182,14	1473,51
182,36	1450,78
182,58	1537,00
182,80	1485,60
183,02	1574,48
183,24	1524,10
183,46	1515,29
183,68	1471,47
183,90	1518,77
184,12	1455,29
184,34	1532,70
184,56	1490,10
184,78	1436,04
185,00	1502,19
185,21	1555,02
185,43	1429,69
185,65	1490,10
185,87	1454,67
186,09	1571,61
186,31	1505,87
186,53	1513,45
186,75	1525,12
186,97	1547,65
187,19	1544,58
187,41	1450,17
187,63	1552,57
187,84	1444,02
188,06	1497,68
188,28	1486,62
188,50	1526,76
188,72	1537,82
188,94	1514,88
189,16	1459,18
189,38	1466,14
189,60	1517,14
189,82	1476,79
190,03	1512,02
190,25	1465,32
190,47	1520,62
190,69	1499,32
190,91	1426,00
191,13	1480,07
191,35	1575,50
191,57	1466,55
191,79	1493,17
192,01	1517,14
192,22	1542,53
192,44	1492,56
192,66	1520,82
192,88	1512,42
193,10	1499,52
193,32	1470,03
193,54	1551,54
193,76	1548,06
193,98	1462,66
194,19	1544,37
194,41	1492,97
194,63	1455,90
194,85	1491,74
195,07	1557,89
195,29	1431,53
195,51	1534,34
195,73	1464,09
195,94	1492,56
196,16	1480,68
196,38	1576,32
196,60	1472,49
196,82	1481,30
197,04	1479,66
197,26	1465,32
197,48	1473,10
197,69	1493,79
197,91	1452,83
198,13	1490,92
198,35	1494,61
198,57	1474,33
198,79	1536,80
199,01	1535,36
199,22	1506,69
199,44	1541,92
199,66	1481,30
199,88	1495,84
200,10	1539,05
200,32	1525,74
200,54	1529,42
200,75	1564,44
200,97	1463,48
201,19	1562,80
201,41	1532,70
201,63	1460,20
201,85	1471,47
202,06	1525,94
202,28	1498,29
202,50	1496,66
202,72	1411,05
202,94	1454,67
203,16	1484,57
203,38	1489,49
203,59	1482,93
203,81	1528,60
204,03	1432,96
204,25	1499,32
204,47	1532,50
204,69	1484,16
204,90	1463,27
205,12	1501,16
205,34	1502,59
205,56	1492,15
205,78	1475,15
206,00	1567,72
206,21	1564,65
206,43	1482,11
206,65	1528,60
206,87	1455,90
207,09	1537,21
207,30	1441,77
207,52	1517,95
207,74	1512,22
207,96	1483,34
208,18	1487,64
208,40	1487,03
208,61	1502,59
208,83	1505,26
209,05	1428,25
209,27	1390,78
209,49	1519,18
209,70	1532,50
209,92	1530,65
210,14	1436,24
210,36	1491,54
210,58	1499,32
210,79	1499,73
211,01	1438,49
211,23	1509,15
211,45	1544,78
211,67	1503,21
211,88	1443,20
212,10	1515,09
212,32	1456,11
212,54	1505,67
212,76	1470,24
212,97	1454,06
213,19	1453,03
213,41	1535,16
213,63	1470,44
213,85	1492,76
214,06	1449,55
214,28	1558,71
214,50	1462,86
214,72	1539,25
214,94	1513,65
215,15	1464,71
215,37	1487,64
215,59	1475,56
215,81	1533,52
216,02	1489,49
216,24	1531,88
216,46	1460,61
216,68	1488,67
216,90	1473,10
217,11	1538,02
217,33	1479,86
217,55	1562,40
217,77	1504,23
217,98	1535,16
218,20	1508,74
218,42	1540,07
218,64	1506,08
218,85	1537,21
219,07	1504,64
219,29	1500,96
219,51	1534,95
219,73	1488,26
219,94	1504,44
220,16	1574,89
220,38	1502,80
220,60	1478,22
220,81	1435,01
221,03	1433,58
221,25	1528,60
221,47	1421,09
221,68	1490,51
221,90	1537,00
222,12	1482,52
222,34	1515,09
222,55	1513,24
222,77	1556,87
222,99	1503,21
223,21	1504,44
223,42	1558,91
223,64	1536,39
223,86	1454,88
224,08	1502,59
224,29	1564,65
224,51	1509,56
224,73	1522,46
224,94	1491,74
225,16	1478,63
225,38	1473,31
225,60	1506,28
225,81	1455,70
226,03	1494,61
226,25	1429,07
226,47	1519,59
226,68	1516,52
226,90	1505,26
227,12	1516,11
227,33	1503,21
227,55	1489,08
227,77	1446,28
227,99	1572,02
228,20	1502,39
228,42	1513,45
228,64	1526,35
228,86	1501,98
229,07	1468,80
229,29	1422,31
229,51	1430,92
229,72	1551,75
229,94	1502,80
230,16	1476,38
230,38	1468,60
230,59	1467,37
230,81	1579,39
231,03	1510,79
231,24	1495,43
231,46	1471,47
231,68	1483,14
231,89	1486,83
232,11	1449,14
232,33	1561,99
232,55	1489,69
232,76	1527,58
232,98	1487,64
233,20	1479,66
233,41	1450,99
233,63	1466,55
233,85	1493,99
234,06	1498,50
234,28	1526,15
234,50	1452,42
234,71	1488,67
234,93	1578,37
235,15	1497,88
235,37	1444,23
235,58	1507,10
235,80	1458,56
236,02	1477,00
236,23	1509,97
236,45	1480,27
236,67	1505,87
236,88	1493,99
237,10	1512,83
237,32	1547,45
237,53	1516,73
237,75	1482,32
237,97	1452,42
238,18	1463,89
238,40	1509,76
238,62	1473,31
238,83	1479,45
239,05	1468,80
239,27	1471,88
239,48	1450,99
239,70	1475,77
239,92	1545,81
240,13	1555,84
240,35	1442,38
240,57	1515,91
240,78	1495,43
241,00	1444,84
241,22	1485,19
241,43	1569,36
241,65	1480,68
241,87	1550,11
242,08	1618,51
242,30	1465,94
242,52	1489,28
242,73	1526,76
242,95	1452,21
243,16	1478,84
243,38	1562,80
243,60	1511,20
243,81	1540,69
244,03	1551,75
244,25	1448,73
244,46	1486,01
244,68	1479,04
244,90	1477,20
245,11	1454,06
245,33	1522,66
245,55	1512,42
245,76	1489,28
245,98	1467,37
246,19	1543,76
246,41	1555,43
246,63	1524,71
246,84	1573,04
247,06	1499,73
247,28	1490,92
247,49	1485,60
247,71	1450,58
247,92	1527,17
248,14	1544,37
248,36	1531,27
248,57	1534,34
248,79	1557,48
249,01	1501,16
249,22	1510,99
249,44	1485,19
249,65	1496,66
249,87	1523,69
250,09	1504,03
250,30	1495,84
250,52	1495,43
250,73	1551,13
250,95	1449,14
251,17	1505,67
251,38	1460,20
251,60	1489,49
251,81	1537,41
252,03	1588,20
252,25	1438,49
252,46	1458,97
252,68	1564,44
252,89	1506,08
253,11	1483,34
253,33	1524,92
253,54	1444,64
253,76	1526,56
253,97	1527,78
254,19	1537,00
254,41	1455,90
254,62	1563,83
254,84	1529,22
255,05	1511,61
255,27	1530,04
255,49	1588,81
255,70	1534,54
255,92	1466,14
256,13	1477,40
256,35	1520,00
256,56	1537,82
256,78	1543,55
257,00	1525,12
257,21	1480,48
257,43	1461,43
257,64	1519,18
257,86	1518,36
258,08	1529,01
258,29	1577,55
258,51	1490,51
258,72	1515,91
258,94	1530,24
259,15	1500,75
259,37	1504,23
259,59	1450,99
259,80	1515,50
260,02	1472,90
260,23	1507,30
260,45	1438,29
260,66	1519,39
260,88	1491,95
261,09	1496,25
261,31	1473,92
261,53	1544,78
261,74	1561,99
261,96	1448,53
262,17	1448,53
262,39	1500,34
262,60	1474,33
262,82	1479,25
263,03	1469,83
263,25	1507,30
263,46	1480,89
263,68	1522,46
263,90	1498,91
264,11	1458,77
264,33	1562,19
264,54	1519,59
264,76	1505,87
264,97	1545,40
265,19	1471,88
265,40	1525,12
265,62	1480,48
265,83	1511,40
266,05	1493,58
266,26	1483,96
266,48	1562,19
266,70	1539,87
266,91	1460,00
267,13	1505,87
267,34	1449,96
267,56	1517,54
267,77	1510,58
267,99	1454,06
268,20	1579,19
268,42	1500,55
268,63	1463,27
268,85	1610,93
269,06	1543,55
269,28	1528,81
269,49	1514,68
269,71	1526,76
269,92	1490,92
270,14	1473,92
270,35	1474,74
270,57	1519,39
270,78	1493,38
271,00	1490,31
271,21	1594,96
271,43	1449,14
271,64	1500,75
271,86	1529,42
272,07	1438,90
272,29	1586,36
272,50	1484,37
272,72	1530,04
272,93	1531,88
273,15	1561,37
273,36	1546,63
273,58	1502,19
273,79	1495,43
274,01	1493,38
274,22	1461,23
274,44	1490,72
274,65	1527,78
274,87	1522,87
275,08	1515,09
275,30	1529,83
275,51	1584,92
275,73	1538,64
275,94	1485,19
276,16	1484,57
276,37	1490,31
276,59	1508,53
276,80	1513,86
277,02	1517,54
277,23	1464,71
277,45	1524,92
277,66	1417,19
277,88	1535,16
278,09	1560,96
278,30	1540,07
278,52	1429,69
278,73	1611,14
278,95	1521,03
279,16	1571,20
279,38	1515,70
279,59	1498,91
279,81	1497,68
280,02	1496,45
280,24	1455,70
280,45	1515,50
280,67	1540,07
280,88	1541,30
281,09	1450,99
281,31	1485,19
281,52	1489,90
281,74	1600,08
281,95	1495,22
282,17	1516,93
282,38	1562,40
282,60	1528,81
282,81	1539,87
283,02	1474,13
283,24	1483,96
283,45	1552,77
283,67	1454,67
283,88	1525,94
284,10	1462,04
284,31	1535,77
284,53	1475,77
284,74	1517,95
284,95	1505,46
285,17	1508,12
285,38	1486,01
285,60	1460,82
285,81	1474,95
286,03	1522,26
286,24	1531,47
286,45	1564,03
286,67	1482,32
286,88	1509,56
287,10	1552,57
287,31	1461,02
287,53	1499,73
287,74	1501,98
287,95	1460,00
288,17	1552,16
288,38	1532,70
288,60	1466,76
288,81	1493,17
289,02	1480,07
289,24	1576,73
289,45	1468,80
289,67	1558,30
289,88	1513,04
290,10	1522,46
290,31	1538,43
290,52	1487,44
290,74	1531,88
290,95	1510,99
291,17	1539,46
291,38	1474,74
291,59	1506,49
291,81	1490,92
292,02	1532,50
292,24	1509,76
292,45	1526,97
292,66	1501,37
292,88	1572,64
293,09	1504,23
293,31	1519,18
293,52	1474,54
293,73	1466,14
293,95	1534,13
294,16	1523,69
294,37	1525,33
294,59	1527,99
294,80	1583,49
295,02	1506,49
295,23	1425,18
295,44	1500,96
295,66	1483,75
295,87	1515,29
296,09	1480,07
296,30	1500,96
296,51	1500,14
296,73	1478,43
296,94	1477,40
297,15	1465,32
297,37	1457,33
297,58	1502,80
297,79	1515,50
298,01	1550,31
298,22	1538,64
298,44	1453,24
298,65	1500,55
298,86	1539,05
299,08	1478,22
299,29	1495,22
299,50	1476,18
299,72	1504,64
299,93	1524,10
300,14	1518,77
300,36	1450,78
300,57	1482,11
300,79	1508,94
301,00	1549,29
301,21	1420,27
301,43	1483,55
301,64	1501,57
301,85	1500,96
302,07	1551,34
302,28	1456,11
302,49	1562,60
302,71	1504,03
302,92	1502,39
303,13	1535,98
303,35	1515,70
303,56	1533,11
303,77	1434,40
303,99	1524,92
304,20	1521,03
304,41	1471,26
304,63	1466,35
304,84	1540,69
305,05	1514,27
305,27	1530,45
305,48	1521,85
305,69	1503,62
305,91	1500,14
306,12	1523,28
306,33	1509,97
306,55	1511,20
306,76	1479,86
306,97	1479,86
307,19	1528,60
307,40	1535,16
307,61	1557,69
307,82	1492,76
308,04	1550,31
308,25	1546,63
308,46	1496,86
308,68	1514,47
308,89	1518,77
309,10	1476,18
309,32	1488,87
309,53	1461,02
309,74	1521,23
309,96	1486,83
310,17	1491,95
310,38	1479,04
310,59	1517,34
310,81	1506,90
311,02	1512,22
311,23	1528,19
311,45	1524,71
311,66	1512,22
311,87	1486,42
312,09	1573,66
312,30	1505,46
312,51	1531,47
312,72	1509,35
312,94	1535,77
313,15	1495,84
313,36	1542,12
313,58	1481,30
313,79	1557,69
314,00	1490,72
314,21	1469,83
314,43	1499,93
314,64	1518,57
314,85	1475,77
315,06	1479,45
315,28	1562,60
315,49	1550,31
315,70	1516,73
315,92	1534,13
316,13	1590,45
316,34	1552,16
316,55	1533,31
316,77	1466,96
316,98	1578,16
317,19	1496,04
317,40	1417,19
317,62	1468,60
317,83	1556,46
318,04	1512,22
318,25	1477,40
318,47	1511,40
318,68	1508,94
318,89	1551,95
319,11	1494,81
319,32	1497,07
319,53	1537,61
319,74	1545,40
319,96	1513,24
320,17	1491,33
320,38	1447,50
320,59	1570,59
320,81	1532,29
321,02	1520,62
321,23	1494,20
321,44	1550,72
321,65	1505,46
321,87	1542,53
322,08	1551,54
322,29	1511,61
322,50	1472,08
322,72	1516,52
322,93	1524,71
323,14	1484,37
323,35	1502,39
323,57	1541,10
323,78	1512,42
323,99	1492,97
324,20	1534,13
324,41	1479,25
324,63	1531,47
324,84	1505,67
325,05	1503,00
325,26	1540,07
325,48	1514,68
325,69	1510,17
325,90	1523,89
326,11	1510,79
326,32	1520,21
326,54	1529,22
326,75	1495,43
326,96	1492,56
327,17	1536,39
327,39	1550,31
327,60	1501,78
327,81	1499,32
328,02	1491,54
328,23	1499,32
328,45	1505,87
328,66	1475,97
328,87	1508,74
329,08	1527,99
329,29	1509,35
329,51	1485,19
329,72	1446,89
329,93	1531,06
330,14	1476,79
330,35	1514,27
330,56	1486,21
330,78	1519,80
330,99	1506,90
331,20	1551,34
331,41	1557,69
331,62	1462,45
331,84	1494,81
332,05	1497,88
332,26	1522,87
332,47	1519,18
332,68	1490,31
332,90	1500,14
333,11	1454,67
333,32	1609,70
333,53	1530,45
333,74	1441,57
333,95	1539,25
334,17	1526,35
334,38	1502,59
334,59	1467,57
334,80	1480,48
335,01	1551,34
335,22	1506,28
335,44	1514,47
335,65	1456,31
335,86	1554,00
336,07	1493,99
336,28	1483,14
336,49	1474,54
336,71	1441,57
336,92	1570,18
337,13	1491,13
337,34	1465,73
337,55	1592,71
337,76	1475,97
337,97	1531,47
338,19	1496,25
338,40	1495,63
338,61	1533,93
338,82	1513,86
339,03	1510,17
339,24	1462,66
339,45	1455,90
339,67	1517,95
339,88	1490,31
340,09	1521,64
340,30	1475,56
340,51	1567,72
340,72	1496,66
340,93	1434,19
341,15	1515,29
341,36	1551,34
341,57	1471,88
341,78	1462,86
341,99	1518,36
342,20	1574,68
342,41	1473,51
342,62	1558,71
342,84	1417,60
343,05	1567,52
343,26	1465,32
343,47	1533,72
343,68	1456,52
343,89	1509,35
344,10	1521,23
344,31	1484,78
344,53	1452,62
344,74	1484,16
344,95	1478,84
345,16	1498,09
345,37	1526,35
345,58	1492,15
345,79	1450,78
346,00	1447,30
346,21	1456,52
346,42	1483,96
346,64	1482,32
346,85	1526,35
347,06	1504,44
347,27	1470,85
347,48	1537,61
347,69	1545,19
347,90	1519,59
348,11	1545,60
348,32	1483,34
348,53	1488,05
348,75	1441,57
348,96	1495,22
349,17	1440,75
349,38	1476,38
349,59	1522,26
349,80	1455,29
350,01	1571,00
350,22	1567,52
350,43	1476,38
350,64	1538,23
350,85	1545,81
351,06	1450,58
351,28	1462,66
351,49	1460,82
351,70	1519,80
351,91	1441,97
352,12	1466,55
352,33	1521,44
352,54	1463,27
352,75	1458,97
352,96	1458,97
353,17	1516,11
353,38	1510,17
353,59	1537,61
353,80	1566,08
354,01	1522,05
354,22	1484,78
354,44	1466,76
354,65	1559,73
354,86	1482,52
355,07	1436,85
355,28	1450,17
355,49	1466,35
355,70	1484,78
355,91	1509,76
356,12	1452,62
356,33	1458,56
356,54	1530,65
356,75	1500,96
356,96	1496,66
357,17	1544,78
357,38	1509,56
357,59	1499,93
357,80	1539,25
358,01	1517,14
358,22	1523,69
358,43	1488,05
358,64	1501,78
358,85	1467,78
359,07	1559,73
359,28	1473,31
359,49	1520,62
359,70	1451,60
359,91	1498,70
360,12	1467,37
360,33	1543,96
360,54	1473,31
360,75	1470,85
360,96	1476,79
361,17	1430,92
361,38	1435,01
361,59	1569,97
361,80	1447,09
362,01	1516,93
362,22	1490,31
362,43	1449,14
362,64	1478,02
362,85	1497,07
363,06	1575,30
363,27	1516,73
363,48	1538,02
363,69	1593,73
363,90	1436,45
364,11	1498,91
364,32	1486,21
364,53	1516,11
364,74	1542,53
364,95	1522,05
365,16	1473,51
365,37	1546,22
365,58	1480,48
365,79	1438,49
366,00	1512,63
366,21	1466,35
366,42	1527,38
366,63	1539,87
366,84	1485,19
367,05	1484,37
367,26	1519,80
367,47	1538,23
367,68	1487,44
367,89	1488,05
368,10	1502,39
368,31	1479,45
368,52	1540,48
368,73	1510,17
368,94	1460,41
369,15	1506,69
369,36	1458,15
369,57	1486,01
369,78	1444,64
369,99	1484,16
370,20	1511,61
370,40	1444,02
370,61	1445,46
370,82	1480,27
371,03	1490,51
371,24	1531,06
371,45	1469,01
371,66	1401,43
371,87	1503,00
372,08	1526,97
372,29	1512,63
372,50	1506,28
372,71	1480,27
372,92	1537,41
373,13	1461,64
373,34	1476,79
373,55	1462,86
373,76	1525,74
373,97	1485,80
374,18	1483,14
374,39	1478,43
374,60	1577,55
374,81	1495,43
375,01	1459,79
375,22	1497,07
375,43	1452,42
375,64	1461,64
375,85	1450,37
376,06	1471,67
376,27	1492,76
376,48	1500,55
376,69	1552,16
376,90	1507,30
377,11	1523,69
377,32	1481,91
377,53	1520,21
377,74	1509,56
377,94	1445,87
378,15	1507,92
378,36	1543,76
378,57	1442,59
378,78	1573,04
378,99	1455,08
379,20	1600,69
379,41	1488,46
379,62	1479,25
379,83	1425,39
380,04	1509,15
380,25	1488,67
380,45	1509,15
380,66	1533,11
380,87	1484,78
381,08	1501,98
381,29	1454,26
381,50	1529,63
381,71	1503,62
381,92	1459,18
382,13	1440,13
382,34	1494,20
382,55	1460,00
382,75	1494,81
382,96	1520,82
383,17	1461,64
383,38	1529,22
383,59	1542,53
383,80	1457,95
384,01	1463,89
384,22	1560,35
384,43	1525,94
384,63	1484,37
384,84	1489,90
385,05	1527,17
385,26	1499,93
385,47	1499,73
385,68	1495,84
385,89	1526,76
386,10	1473,92
386,30	1490,10
386,51	1446,07
386,72	1486,42
386,93	1436,45
387,14	1495,63
387,35	1499,32
387,56	1569,36
387,77	1454,67
387,97	1484,37
388,18	1470,65
388,39	1491,33
388,60	1477,81
388,81	1529,01
389,02	1507,10
389,23	1472,28
389,43	1484,98
389,64	1484,78
389,85	1477,81
390,06	1545,19
390,27	1454,88
390,48	1549,70
390,69	1486,42
390,89	1448,94
391,10	1466,14
391,31	1466,35
391,52	1480,68
391,73	1507,51
391,94	1478,43
392,14	1446,69
392,35	1459,59
392,56	1460,00
392,77	1501,57
392,98	1495,84
393,19	1511,81
393,39	1539,46
393,60	1491,95
393,81	1523,69
394,02	1538,02
394,23	1437,26
394,44	1429,89
394,64	1499,32
394,85	1498,09
395,06	1529,63
395,27	1497,68
395,48	1524,92
395,69	1517,34
395,89	1486,83
396,10	1488,05
396,31	1577,96
396,52	1444,02
396,73	1492,97
396,93	1456,92
397,14	1516,93
397,35	1537,82
397,56	1516,52
397,77	1477,40
397,97	1471,26
398,18	1500,55
398,39	1491,33
398,60	1469,42
398,81	1441,16
399,01	1450,58
399,22	1504,64
399,43	1526,56
399,64	1555,43
399,85	1541,10
400,05	1454,26
400,26	1403,06
400,47	1472,08
400,68	1441,57
400,89	1609,09
401,09	1454,88
401,30	1509,56
401,51	1516,32
401,72	1471,26
401,93	1570,38
402,13	1457,54
402,34	1526,56
402,55	1491,74
402,76	1479,66
402,96	1478,63
403,17	1502,19
403,38	1539,87
403,59	1544,37
403,80	1515,70
404,00	1499,93
404,21	1507,71
404,42	1453,85
404,63	1478,43
404,83	1483,55
405,04	1504,03
405,25	1538,02
405,46	1548,06
405,66	1476,79
405,87	1519,80
406,08	1482,93
406,29	1527,38
406,49	1454,06
406,70	1548,67
406,91	1426,21
407,12	1455,90
407,32	1537,61
407,53	1526,97
407,74	1507,71
407,95	1536,18
408,15	1474,13
408,36	1450,17
408,57	1505,87
408,78	1504,85
408,98	1517,75
409,19	1541,92
409,40	1464,09
409,61	1488,67
409,81	1492,76
410,02	1471,88
410,23	1487,44
410,44	1520,41
410,64	1427,64
410,85	1497,68
411,06	1462,86
411,26	1584,92
411,47	1477,61
411,68	1545,81
411,89	1460,61
412,09	1509,97
412,30	1524,71
412,51	1488,87
412,72	1490,51
412,92	1490,51
413,13	1462,86
413,34	1481,91
413,54	1479,25
413,75	1528,81
413,96	1495,22
414,17	1477,00
414,37	1501,16
414,58	1549,49
414,79	1503,82
414,99	1507,30
415,20	1504,85
415,41	1437,06
415,61	1493,38
415,82	1513,24
416,03	1502,59
416,24	1479,04
416,44	1501,57
416,65	1524,71
416,86	1543,35
417,06	1471,26
417,27	1498,70
417,48	1492,15
417,68	1454,26
417,89	1518,36
418,10	1454,47
418,30	1533,93
418,51	1533,11
418,72	1497,88
418,92	1498,70
419,13	1507,92
419,34	1480,27
419,55	1526,15
419,75	1957,65
419,96	1502,59
420,17	1574,27
420,37	1480,89
420,58	1530,65
420,79	1454,67
420,99	1493,79
421,20	1560,76
421,41	1499,93
421,61	1479,66
421,82	1455,08
422,03	1504,23
422,23	1467,37
422,44	1481,71
422,65	1546,22
422,85	1489,69
423,06	1482,73
423,26	1502,39
423,47	1521,23
423,68	1521,64
423,88	1525,33
424,09	1505,67
424,30	1503,82
424,50	1450,78
424,71	1478,84
424,92	1529,42
425,12	1576,53
425,33	1540,07
425,54	1493,58
425,74	1477,20
425,95	1519,18
426,15	1459,38
426,36	1482,32
426,57	1516,11
426,77	1524,71
426,98	1460,41
427,19	1443,20
427,39	1448,53
427,60	1565,67
427,81	1500,75
428,01	1515,29
428,22	1486,83
428,42	1512,42
428,63	1470,03
428,84	1466,76
429,04	1479,25
429,25	1495,43
429,45	1424,36
429,66	1516,11
429,87	1466,35
430,07	1589,63
430,28	1488,67
430,49	1546,83
430,69	1504,85
430,90	1479,66
431,10	1460,20
431,31	1540,48
431,52	1511,40
431,72	1483,14
431,93	1538,02
432,13	1540,28
432,34	1512,22
432,55	1472,49
432,75	1459,79
432,96	1482,52
433,16	1502,39
433,37	1517,14
433,58	1438,29
433,78	1492,97
433,99	1457,54
434,19	1433,37
434,40	1489,49
434,60	1449,76
434,81	1507,92
435,02	1457,13
435,22	1460,82
435,43	1499,93
435,63	1461,84
435,84	1481,91
436,05	1529,22
436,25	1489,90
436,46	1522,66
436,66	1459,38
436,87	1503,41
437,07	1466,35
437,28	1502,39
437,48	1453,65
437,69	1478,63
437,90	1493,17
438,10	1484,37
438,31	1533,93
438,51	1467,57
438,72	1503,21
438,92	1461,02
439,13	1490,92
439,34	1485,39
439,54	1520,21
439,75	1496,04
439,95	1520,41
440,16	1432,76
440,36	1566,49
440,57	1528,81
440,77	1514,68
440,98	1483,34
441,18	1465,73
441,39	1512,02
441,60	1469,42
441,80	1486,62
442,01	1486,62
442,21	1494,61
442,42	1486,42
442,62	1501,37
442,83	1442,59
443,03	1502,80
443,24	1502,19
443,44	1519,59
443,65	1476,79
443,85	1492,97
444,06	1529,63
444,26	1523,69
444,47	1447,09
444,67	1463,68
444,88	1505,67
445,09	1521,23
445,29	1489,49
445,50	1548,47
445,70	1435,42
445,91	1488,46
446,11	1444,43
446,32	1516,52
446,52	1509,35
446,73	1444,84
446,93	1477,40
447,14	1476,59
447,34	1488,87
447,55	1458,97
447,75	1500,96
447,96	1518,16
448,16	1529,22
448,37	1487,23
448,57	1474,74
448,78	1505,05
448,98	1488,67
449,19	1510,79
449,39	1506,90
449,60	1492,15
449,80	1478,22
450,01	1460,82
450,21	1457,95
450,42	1505,05
450,62	1476,18
450,83	1470,24
451,03	1494,20
451,23	1473,72
451,44	1534,13
451,64	1472,49
451,85	1510,17
452,05	1508,33
452,26	1494,20
452,46	1498,50
452,67	1521,85
452,87	1473,72
453,08	1501,98
453,28	1480,07
453,49	1496,86
453,69	1548,88
453,90	1513,04
454,10	1548,47
454,31	1529,63
454,51	1516,11
454,71	1489,69
454,92	1481,50
455,12	1438,70
455,33	1446,89
455,53	1562,80
455,74	1474,13
455,94	1502,80
456,15	1520,00
456,35	1530,45
456,55	1448,73
456,76	1483,14
456,96	1459,79
457,17	1400,61
457,37	1509,97
457,58	1499,32
457,78	1457,54
457,99	1498,09
458,19	1488,05
458,39	1492,35
458,60	1491,95
458,80	1444,02
459,01	1460,82
459,21	1456,92
459,42	1485,60
459,62	1544,37
459,82	1472,08
460,03	1472,69
460,23	1510,99
460,44	1494,81
460,64	1458,97
460,85	1491,13
461,05	1440,13
461,25	1445,05
461,46	1472,28
461,66	1482,11
461,87	1511,61
462,07	1540,48
462,27	1509,15
462,48	1505,46
462,68	1464,91
462,89	1431,33
463,09	1924,48
463,29	1501,16
463,50	1540,48
463,70	1455,49
463,91	1469,83
464,11	1490,92
464,31	1515,70
464,52	1542,33
464,72	1564,85
464,93	1438,49
465,13	1504,64
465,33	1489,28
465,54	1462,45
465,74	1547,65
465,95	1468,80
466,15	1444,64
466,35	1471,67
466,56	1513,04
466,76	1507,30
466,96	1513,65
467,17	1541,10
467,37	1522,46
467,58	1516,73
467,78	1494,81
467,98	1482,93
468,19	1447,71
468,39	1503,00
468,59	1535,16
468,80	1559,32
469,00	1461,02
469,21	1445,05
469,41	1492,15
469,61	1517,14
469,82	1486,21
470,02	1533,31
470,22	1461,02
470,43	1490,72
470,63	1475,15
470,83	1430,71
471,04	1434,60
471,24	1509,35
471,45	1544,17
471,65	1575,50
471,85	1495,02
472,06	1498,29
472,26	1517,14
472,46	1474,33
472,67	1587,79
472,87	1494,20
473,07	1489,08
473,28	1459,18
473,48	1526,97
473,68	1576,94
473,89	1500,55
474,09	1531,47
474,29	1465,73
474,50	1525,33
474,70	1467,16
474,90	1566,49
475,11	1485,19
475,31	1527,17
475,51	1510,79
475,72	1528,19
475,92	1482,52
476,12	1474,74
476,33	1578,78
476,53	1498,09
476,73	1443,61
476,93	1501,57
477,14	1481,71
477,34	1529,22
477,54	1527,58
477,75	1472,08
477,95	1455,70
478,15	1541,10
478,36	1536,80
478,56	1479,66
478,76	1500,75
478,97	1477,40
479,17	1471,06
479,37	1479,45
479,57	1498,70
479,78	1521,44
479,98	1493,38
480,18	1523,07
480,39	1498,29
480,59	1523,28
480,79	1518,57
480,99	1493,79
481,20	1473,92
481,40	1578,16
481,60	1479,25
481,81	1559,73
482,01	1529,22
482,21	1471,67
482,41	1510,38
482,62	1521,23
482,82	1491,33
483,02	1557,69
483,23	1430,51
483,43	1544,37
483,63	1496,86
483,83	1493,38
484,04	1607,86
484,24	1520,21
484,44	1479,66
484,64	1499,73
484,85	1510,38
485,05	1493,58
485,25	1513,24
485,45	1436,04
485,66	1486,01
485,86	1452,21
486,06	1466,14
486,26	1493,58
486,47	1484,16
486,67	1465,73
486,87	1505,05
487,07	1505,26
487,28	1473,51
487,48	1489,69
487,68	1458,97
487,88	1511,61
488,09	1525,94
488,29	1506,49
488,49	1546,83
488,69	1506,28
488,90	1517,34
489,10	1496,66
489,30	1464,09
489,50	1493,58
489,71	1547,65
489,91	1512,02
490,11	1516,52
490,31	1523,69
490,52	1507,51
490,72	1483,75
490,92	1543,76
491,12	1506,08
491,32	1487,23
491,53	1507,92
491,73	1501,37
491,93	1482,32
492,13	1491,74
492,33	1492,35
492,54	1503,41
492,74	1539,66
492,94	1507,51
493,14	1493,17
493,35	1484,78
493,55	1478,22
493,75	1508,94
493,95	1500,14
494,15	1513,24
494,36	1535,16
494,56	1484,37
494,76	1491,74
494,96	1485,80
495,16	1479,66
495,37	1552,77
495,57	1447,30
495,77	1516,32
495,97	1512,22
496,17	1444,64
496,37	1520,21
496,58	1532,70
496,78	1460,00
496,98	1442,79
497,18	1543,76
497,38	1535,98
497,59	1587,99
497,79	1455,08
497,99	1574,07
498,19	1496,66
498,39	1600,28
498,59	1472,28
498,80	1560,96
499,00	1524,10
499,20	1448,94
499,40	1454,67
499,60	1475,36
499,80	1514,47
500,01	1496,86
500,21	1495,43
500,41	1514,88
500,61	1543,14
500,81	1503,41
501,01	1517,14
501,22	1474,54
501,42	1492,35
501,62	1534,75
501,82	1532,70
502,02	1516,11
502,22	1483,96
502,42	1509,76
502,63	1584,51
502,83	1552,36
503,03	1486,21
503,23	1489,49
503,43	1460,20
503,63	1579,19
503,83	1565,67
504,04	1483,96
504,24	1488,05
504,44	1505,67
504,64	1497,68
504,84	1568,33
505,04	1490,10
505,24	1474,95
505,44	1503,00
505,65	1539,46
505,85	1574,48
506,05	1515,91
506,25	1499,93
506,45	1513,04
506,65	1484,78
506,85	1421,29
507,05	1544,58
507,26	1496,45
507,46	1541,92
507,66	1470,44
507,86	1446,69
508,06	1513,24
508,26	1447,91
508,46	1503,00
508,66	1479,45
508,86	1526,35
509,06	1475,15
509,27	1513,86
509,47	1496,45
509,67	1458,97
509,87	1503,62
510,07	1544,17
510,27	1495,43
510,47	1550,11
510,67	1544,99
510,87	1526,15
511,07	1464,50
511,28	1510,17
511,48	1555,43
511,68	1497,88
511,88	1449,35
512,08	1458,77
512,28	1460,61
512,48	1540,48
512,68	1476,79
512,88	1499,52
513,08	1535,16
513,28	1603,76
513,48	1553,18
513,68	1520,82
513,89	1516,11
514,09	1532,50
514,29	1459,59
514,49	1500,55
514,69	1541,92
514,89	1496,25
515,09	1510,17
515,29	1531,68
515,49	1479,25
515,69	1561,17
515,89	1527,17
516,09	1492,35
516,29	1428,87
516,49	1443,20
516,69	1486,21
516,89	1475,97
517,09	1477,00
517,29	1504,64
517,50	1425,80
517,70	1470,03
517,90	1499,52
518,10	1481,30
518,30	1462,66
518,50	1535,98
518,70	1537,21
518,90	1497,07
519,10	1534,13
519,30	1469,42
519,50	1501,98
519,70	1518,77
519,90	1564,44
520,10	1541,71
520,30	1505,05
520,50	1453,03
520,70	1455,49
520,90	1585,33
521,10	1500,14
521,30	1495,02
521,50	1561,78
521,70	1542,53
521,90	1541,71
522,10	1545,19
522,30	1519,80
522,50	1508,53
522,70	1521,23
522,90	1486,42
523,10	1537,82
523,30	1511,81
523,50	1534,34
523,70	1510,58
523,90	1459,18
524,10	1492,97
524,30	1447,71
524,50	1522,05
524,70	1524,30
524,90	1502,80
525,10	1519,39
525,30	1490,10
525,50	1481,30
525,70	1461,02
525,90	1489,49
526,10	1529,01
526,30	1497,07
526,50	1539,66
526,70	1495,63
526,90	1488,46
527,10	1495,43
527,30	1481,30
527,50	1533,11
527,70	1504,23
527,90	1510,17
528,10	1507,10
528,30	1501,37
528,50	1505,05
528,70	1509,76
528,90	1473,10
529,10	1518,36
529,30	1475,15
529,50	1557,28
529,70	1516,11
529,90	1514,68
530,10	1524,10
530,29	1553,38
530,49	1538,02
530,69	1500,55
530,89	1504,23
531,09	1507,10
531,29	1543,35
531,49	1492,35
531,69	1533,11
531,89	1497,68
532,09	1520,00
532,29	1552,77
532,49	1514,47
532,69	1517,54
532,89	1452,21
533,09	1514,27
533,29	1467,57
533,49	1476,79
533,68	1507,71
533,88	1509,35
534,08	1488,87
534,28	1500,96
534,48	1503,21
534,68	1460,20
534,88	1539,87
535,08	1517,75
535,28	1555,02
535,48	1534,54
535,68	1542,33
535,88	1539,87
536,08	1505,67
536,27	1488,26
536,47	1537,41
536,67	1528,40
536,87	1478,02
537,07	1528,60
537,27	1571,00
537,47	1498,91
537,67	1448,12
537,87	1470,65
538,07	1506,69
538,27	1566,90
538,46	1588,20
538,66	1485,80
538,86	1487,44
539,06	1516,93
539,26	1510,17
539,46	1520,62
539,66	1517,75
539,86	1505,46
540,06	1497,47
540,25	1576,32
540,45	1487,03
540,65	1502,59
540,85	1497,88
541,05	1546,01
541,25	1543,76
541,45	1536,18
541,65	1554,41
541,85	1535,98
542,04	1542,73
542,24	1577,76
542,44	1544,78
542,64	1556,46
542,84	1536,80
543,04	1480,07
543,24	1573,66
543,43	1493,58
543,63	1603,56
543,83	1539,87
544,03	1551,75
544,23	1554,61
544,43	1552,36
544,63	1566,08
544,82	1548,88
545,02	1519,80
545,22	1568,13
545,42	1557,48
545,62	1539,66
545,82	1512,02
546,02	1505,26
546,21	1533,11
546,41	1554,00
546,61	1501,98
546,81	1505,87
547,01	1599,26
547,21	1555,02
547,40	1551,34
547,60	1613,80
547,80	1554,82
548,00	1478,22
548,20	1532,50
548,40	1581,24
548,59	1556,05
548,79	1596,39
548,99	1590,86
549,19	1566,08
549,39	1539,05
549,59	1566,49
549,78	1609,91
549,98	1550,52
550,18	1571,82
550,38	1624,86
550,58	1568,74
550,77	1591,48
550,97	1577,35
551,17	1601,31
551,37	1611,34
551,57	1569,77
551,76	1616,26
551,96	1577,14
552,16	1644,72
552,36	1590,04
552,56	1617,90
552,75	1591,68
552,95	1554,82
553,15	1650,66
553,35	1698,59
553,55	1582,88
553,74	1620,35
553,94	1572,02
554,14	1572,84
554,34	1587,99
554,54	1629,16
554,73	1551,13
554,93	1593,52
555,13	1633,05
555,33	1602,13
555,53	1557,48
555,72	1639,40
555,92	1714,35
556,12	1659,47
556,32	1662,75
556,51	1646,36
556,71	1617,08
556,91	1645,95
557,11	1643,29
557,30	1650,05
557,50	1673,19
557,70	1647,39
557,90	1627,73
558,10	1662,75
558,29	1668,89
558,49	1668,89
558,69	1692,03
558,89	1692,24
559,08	1718,25
559,28	1643,29
559,48	1665,00
559,68	1691,01
559,87	1750,19
560,07	1679,13
560,27	1689,78
560,47	1705,34
560,66	1694,90
560,86	1696,33
561,06	1725,62
561,25	1672,17
561,45	1703,30
561,65	1722,75
561,85	1720,09
562,04	1730,33
562,24	1731,97
562,44	1734,63
562,64	1817,16
562,83	1888,23
563,03	1838,05
563,23	1744,46
563,42	1781,53
563,62	1719,88
563,82	1754,29
564,02	1771,49
564,21	1794,64
564,41	1776,41
564,61	1808,36
564,80	1794,02
565,00	1879,42
565,20	1832,11
565,40	1904,41
565,59	1787,47
565,79	1860,58
565,99	1896,62
566,18	1909,94
566,38	1926,73
566,58	1900,92
566,78	1873,69
566,97	1940,45
567,17	1958,06
567,37	1857,71
567,56	1941,47
567,76	1983,87
567,96	1897,65
568,15	1943,52
568,35	1975,47
568,55	2004,55
568,74	1991,44
568,94	1984,89
569,14	1977,11
569,33	1995,13
569,53	1992,06
569,73	2003,12
569,92	2133,98
570,12	2063,33
570,32	2042,64
570,52	2070,91
570,71	2087,90
570,91	2194,60
571,11	2135,01
571,30	2144,63
571,50	2150,16
571,70	2239,86
571,89	2259,73
572,09	2278,57
572,28	2173,10
572,48	2161,22
572,68	2214,47
572,87	2279,80
573,07	2307,04
573,27	2324,03
573,46	2369,09
573,66	2347,79
573,86	2390,80
574,05	2379,94
574,25	2365,61
574,45	2398,58
574,64	2486,85
574,84	2591,09
575,04	2492,79
575,23	2572,86
575,43	2526,17
575,62	2580,65
575,82	2604,40
576,02	2525,96
576,21	2645,57
576,41	2640,65
576,61	2689,80
576,80	2706,19
577,00	2705,98
577,19	2747,96
577,39	2831,52
577,59	2875,55
577,78	2907,30
577,98	2946,21
578,18	2923,07
578,37	2967,10
578,57	3048,20
578,76	3045,74
578,96	3082,60
579,16	3091,41
579,35	3174,56
579,55	3156,12
579,74	3273,47
579,94	3200,36
580,14	3385,91
580,33	3338,39
580,53	3358,87
580,72	3400,45
580,92	3488,51
581,12	3448,57
581,31	3510,83
581,51	3652,35
581,70	3629,21
581,90	3689,62
582,10	3783,42
582,29	3815,37
582,49	3806,56
582,68	3869,84
582,88	3888,89
583,07	4131,57
583,27	4078,12
583,47	4243,80
583,66	4198,54
583,86	4242,78
584,05	4245,85
584,25	4287,42
584,44	4478,70
584,64	4483,00
584,84	4468,87
585,03	4561,65
585,23	4569,43
585,42	4668,34
585,62	4757,23
585,81	4829,11
586,01	4970,22
586,20	5044,56
586,40	5099,85
586,60	5193,24
586,79	5209,21
586,99	5312,84
587,18	5412,58
587,38	5354,21
587,57	5463,16
587,77	5586,45
587,96	5772,61
588,16	5788,99
588,35	5878,69
588,55	6077,35
588,75	6129,98
588,94	6167,05
589,14	6297,71
589,33	6305,08
589,53	6521,76
589,72	6493,70
589,92	6686,00
590,11	6693,58
590,31	6852,50
590,50	6912,51
590,70	7076,35
590,89	7243,05
591,09	7325,99
591,28	7479,18
591,48	7574,00
591,67	7718,38
591,87	7806,24
592,06	7973,56
592,26	8100,95
592,45	8246,76
592,65	8444,39
592,84	8484,94
593,04	8678,06
593,23	8821,42
593,43	8957,20
593,62	9171,83
593,82	9324,61
594,01	9450,76
594,21	9706,76
594,40	9854,62
594,60	9911,14
594,79	10232,06
594,99	10398,77
595,18	10585,13
595,38	10902,36
595,57	10984,89
595,77	11322,20
595,96	11509,99
596,16	11824,56
596,35	11938,22
596,55	12250,74
596,74	12419,50
596,94	12521,69
597,13	12767,65
597,33	12930,67
597,52	13142,63
597,72	13366,07
597,91	13758,46
598,11	13939,09
598,30	14198,77
598,50	14570,07
598,69	14767,49
598,88	15034,34
599,08	15277,85
599,27	15656,11
599,47	15838,99
599,66	16331,32
599,86	16632,58
600,05	17057,33
600,25	17572,39
600,44	17801,76
600,64	18291,02
600,83	18641,43
601,02	18982,01
601,22	19439,32
601,41	19701,46
601,61	20415,79
601,80	20825,38
602,00	21474,80
602,19	21592,55
602,38	22078,74
602,58	22333,30
602,77	23064,02
602,97	23605,71
603,16	24300,58
603,36	24373,70
603,55	25258,21
603,74	25407,31
603,94	26206,22
604,13	26620,52
604,33	27247,41
604,52	27541,49
604,72	28078,68
604,91	28378,29
605,10	29319,13
605,30	29479,49
605,49	30182,96
605,69	30811,69
605,88	31187,90
606,07	31981,08
606,27	32614,31
606,46	33136,34
606,66	33891,22
606,85	34104,00
607,04	35260,29
607,24	35676,84
607,43	36837,84
607,63	37063,73
607,82	37789,94
608,01	38399,41
608,21	38710,09
608,40	39599,52
608,60	39782,82
608,79	40318,77
608,98	40539,95
609,18	41643,40
609,37	41836,93
609,57	41776,31
609,76	42636,05
609,95	42981,74
610,15	43732,94
610,34	44296,74
610,53	44615,00
610,73	45026,03
610,92	46038,95
611,11	46427,04
611,31	47497,11
611,50	47932,50
611,70	49091,45
611,89	49823,60
612,08	50649,95
612,28	50944,66
612,47	51752,78
612,66	52084,56
612,86	52722,09
613,05	52832,88
613,24	53344,88
613,44	53597,59
613,63	53884,72
613,82	54211,17
614,02	54538,23
614,21	53807,92
614,41	54095,46
614,60	54146,86
614,79	53621,56
614,99	53369,25
615,18	53518,75
615,37	52653,89
615,57	53103,22
615,76	51801,12
615,95	51151,30
616,15	50344,81
616,34	50525,44
616,53	49446,16
616,73	48898,74
616,92	47646,81
617,11	46600,30
617,30	45395,89
617,50	44200,08
617,69	43077,79
617,88	42267,41
618,08	40315,90
618,27	39725,27
618,46	38251,55
618,66	36870,81
618,85	35752,82
619,04	34523,84
619,24	33571,53
619,43	32206,15
619,62	30949,72
619,82	29755,14
620,01	28553,80
620,20	27774,55
620,39	26406,10
620,59	25502,54
620,78	24572,96
620,97	23812,35
621,17	22993,98
621,36	22391,26
621,55	21324,27
621,74	20615,88
621,94	19648,83
622,13	19251,11
622,32	18456,70
622,52	17661,48
622,71	17170,99
622,90	16494,14
623,09	15925,00
623,29	15401,34
623,48	14771,38
623,67	14330,66
623,86	13682,27
624,06	13275,96
624,25	12792,23
624,44	12434,04
624,64	12035,71
624,83	11588,84
625,02	11149,96
625,21	11024,42
625,41	10625,89
625,60	10377,67
625,79	9959,07
625,98	9721,71
626,18	9560,53
626,37	9184,12
626,56	8945,12
626,75	8768,58
626,95	8398,92
627,14	8195,15
627,33	8032,75
627,52	7826,93
627,72	7567,86
627,91	7533,04
628,10	7239,16
628,29	7119,56
628,49	6916,40
628,68	6808,27
628,87	6590,98
629,06	6593,23
629,25	6351,16
629,45	6121,99
629,64	6084,31
629,83	5903,88
630,02	5696,02
630,22	5651,16
630,41	5490,81
630,60	5357,49
630,79	5183,20
630,98	5066,27
631,18	4896,69
631,37	4793,68
631,56	4732,45
631,75	4702,34
631,94	4541,58
632,14	4375,08
632,33	4287,83
632,52	4200,38
632,71	4595,03
632,90	4068,29
633,10	3996,00
633,29	3850,59
633,48	3782,19
633,67	3708,26
633,86	3654,40
634,06	3545,24
634,25	3518,62
634,44	3465,98
634,63	3302,76
634,82	3246,24
635,02	3201,18
635,21	3124,18
635,40	3035,70
635,59	3017,89
635,78	3015,02
635,97	2913,03
636,17	2852,41
636,36	2828,24
636,55	2805,51
636,74	2782,58
636,93	2691,03
637,12	2661,95
637,32	2617,92
637,51	2544,19
637,70	2563,85
637,89	2515,52
638,08	2450,39
638,27	2495,45
638,47	2417,63
638,66	2402,27
638,85	2323,83
639,04	2312,57
639,23	2342,67
639,42	2278,77
639,62	2306,83
639,81	2253,38
640,00	2233,31
640,19	2198,90
640,38	2180,68
640,57	2174,94
640,76	2168,59
640,95	2072,34
641,15	2071,93
641,34	2106,34
641,53	2029,54
641,72	2109,20
641,91	2074,59
642,10	1982,84
642,29	2030,77
642,49	1969,33
642,68	1924,68
642,87	1961,95
643,06	1949,67
643,25	1930,01
643,44	1880,24
643,63	1887,41
643,82	1846,86
644,01	1844,20
644,21	1846,45
644,40	1883,11
644,59	1811,22
644,78	1834,57
644,97	1898,88
645,16	1797,30
645,35	1755,72
645,54	1762,28
645,73	1790,13
645,92	1788,29
646,12	1700,43
646,31	1695,51
646,50	1726,44
646,69	1738,32
646,88	1659,47
647,07	1743,64
647,26	1694,69
647,45	1688,76
647,64	1701,25
647,83	1679,74
648,02	1713,13
648,22	1693,87
648,41	1631,21
648,60	1649,02
648,79	1655,37
648,98	1700,84
649,17	1653,94
649,36	1550,52
649,55	1637,97
649,74	1662,75
649,93	1588,81
650,12	1644,52
650,31	1676,26
650,50	1615,64
650,69	1648,00
650,88	1674,62
651,08	1590,45
651,27	1660,08
651,46	1670,12
651,65	1570,79
651,84	1572,23
652,03	1574,68
652,22	1567,72
652,41	1566,49
652,60	1663,77
652,79	1646,77
652,98	1596,80
653,17	1575,91
653,36	1591,07
653,55	1555,43
653,74	1624,65
653,93	1569,97
654,12	1560,35
654,31	1528,81
654,50	1575,09
654,69	1625,27
654,88	1609,70
655,07	1530,65
655,26	1527,58
655,45	1522,66
655,64	1504,64
655,83	1546,63
656,02	1598,85
656,21	1512,42
656,40	1498,70
656,59	1576,73
656,78	1521,23
656,97	1542,33
657,17	1586,77
657,36	1550,31
657,55	1635,51
657,74	1591,07
657,93	1547,65
658,12	1561,99
658,31	1546,42
658,50	1513,04
658,69	1502,59
658,87	1563,83
659,06	1535,98
659,25	1523,89
659,44	1512,22
659,63	1573,04
659,82	1554,41
660,01	1571,61
660,20	1501,78
660,39	1564,44
660,58	1503,62
660,77	1511,61
660,96	1527,78
661,15	1545,40
661,34	1525,74
661,53	1538,43
661,72	1522,05
661,91	1485,19
662,10	1511,20
662,29	1463,27
662,48	1485,80
662,67	1495,84
662,86	1504,44
663,05	1521,03
663,24	1532,70
663,43	1507,92
663,62	1573,66
663,81	1482,52
664,00	1580,01
664,19	1472,28
664,38	1518,98
664,57	1484,16
664,76	1521,03
664,94	1490,92
665,13	1476,79
665,32	1463,48
665,51	1503,41
665,70	1481,50
665,89	1523,89
666,08	1521,03
666,27	1464,09
666,46	1518,16
666,65	1528,19
666,84	1448,12
667,03	1492,15
667,22	1476,59
667,41	1554,82
667,60	1511,81
667,78	1521,23
667,97	1526,35
668,16	1532,90
668,35	1502,59
668,54	1496,66
668,73	1504,03
668,92	1490,72
669,11	1485,60
669,30	1496,86
669,49	1495,02
669,68	1572,23
669,86	1499,32
670,05	1486,62
670,24	1468,39
670,43	1530,45
670,62	1532,29
670,81	1493,79
671,00	1492,76
671,19	1539,25
671,38	1507,30
671,57	1495,02
671,75	1486,62
671,94	1565,06
672,13	1507,92
672,32	1478,43
672,51	1457,13
672,70	1538,02
672,89	1472,28
673,08	1489,90
673,26	1487,23
673,45	1503,00
673,64	1486,42
673,83	1479,25
674,02	1479,86
674,21	1591,89
674,40	1513,24
674,59	1528,40
674,77	1515,70
674,96	1556,66
675,15	1546,01
675,34	1512,63
675,53	1573,45
675,72	1505,87
675,91	1548,88
676,09	1576,32
676,28	1626,91
676,47	1496,25
676,66	1461,43
676,85	1585,74
677,04	1527,58
677,22	1513,45
677,41	1502,19
677,60	1533,72
677,79	1472,28
677,98	1487,23
678,17	1467,16
678,36	1529,63
678,54	1441,57
678,73	1554,20
678,92	1456,72
679,11	1559,73
679,30	1480,48
679,48	1524,10
679,67	1499,73
679,86	1499,73
680,05	1539,05
680,24	1478,02
680,43	1491,13
680,61	1466,55
680,80	1430,30
680,99	1461,43
681,18	1475,97
681,37	1526,35
681,55	1573,86
681,74	1537,41
681,93	1503,00
682,12	1445,25
682,31	1464,30
682,49	1497,68
682,68	1554,41
682,87	1500,96
683,06	1475,97
683,25	1516,52
683,43	1521,64
683,62	1482,93
683,81	1557,07
684,00	1562,19
684,19	1508,33
684,37	1470,24
684,56	1461,23
684,75	1552,57
684,94	1488,87
685,12	1568,13
685,31	1512,63
685,50	1512,83
685,69	1495,22
685,88	1498,70
686,06	1507,30
686,25	1481,71
686,44	1493,38
686,63	1478,22
686,81	1539,25
687,00	1475,15
687,19	1521,03
687,38	1503,41
687,56	1462,45
687,75	1529,22
687,94	1474,74
688,13	1469,42
688,31	1484,16
688,50	1469,21
688,69	1488,87
688,88	1538,43
689,06	1519,39
689,25	1508,12
689,44	1441,57
689,63	1490,92
689,81	1432,14
690,00	1459,38
690,19	1510,58
690,38	1472,90
690,56	1457,74
690,75	1563,42
690,94	1494,61
691,13	1474,13
691,31	1508,53
691,50	1463,07
691,69	1508,94
691,87	1467,78
692,06	1497,07
692,25	1487,85
692,44	1467,37
692,62	1457,74
692,81	1619,94
693,00	1525,74
693,18	1483,34
693,37	1532,70
693,56	1456,31
693,75	1458,97
693,93	1533,31
694,12	1561,99
694,31	1494,81
694,49	1442,38
694,68	1477,20
694,87	1501,78
695,05	1480,27
695,24	1460,00
695,43	1472,08
695,62	1467,98
695,80	1465,94
695,99	1548,67
696,18	1457,54
696,36	1579,80
696,55	1467,98
696,74	1468,80
696,92	1558,91
697,11	1528,81
697,30	1510,38
697,48	1484,16
697,67	1459,18
697,86	1489,08
698,04	1429,48
698,23	1480,48
698,42	1513,86
698,60	1508,53
698,79	1479,45
698,98	1509,76
699,16	1466,35
699,35	1462,25
699,54	1522,46
699,72	1474,13
699,91	1600,08
700,10	1467,78
700,28	1488,67
700,47	1601,10
700,66	1497,07
700,84	1487,85
701,03	1408,18
701,21	1517,34
701,40	1470,85
701,59	1526,56
701,77	1474,95
701,96	1489,08
702,15	1489,69
702,33	1481,30
702,52	1469,62
702,71	1547,24
702,89	1498,29
703,08	1524,51
703,26	1527,99
703,45	1552,16
703,64	1521,23
703,82	1562,80
704,01	1479,45
704,20	1525,12
704,38	1498,70
704,57	1470,44
704,75	1474,13
704,94	1466,96
705,13	1501,37
705,31	1528,40
705,50	1469,62
705,68	1494,20
705,87	1545,40
706,06	1495,43
706,24	1473,51
706,43	1443,20
706,61	1529,42
706,80	1474,95
706,99	1511,40
707,17	1549,08
707,36	1522,87
707,54	1473,51
707,73	1470,03
707,92	1480,89
708,10	1459,18
708,29	1483,75
708,47	1492,15
708,66	1512,22
708,84	1473,72
709,03	1505,87
709,22	1506,49
709,40	1519,18
709,59	1496,04
709,77	1556,25
709,96	1543,14
710,14	1455,70
710,33	1517,14
710,52	1507,30
710,70	1553,38
710,89	1497,27
711,07	1482,73
711,26	1512,42
711,44	1558,50
711,63	1510,99
711,81	1502,19
712,00	1463,68
712,19	1508,12
712,37	1549,49
712,56	1516,93
712,74	1470,03
712,93	1524,30
713,11	1481,50
713,30	1515,09
713,48	1523,07
713,67	1481,30
713,85	1466,55
714,04	1527,38
714,22	1558,30
714,41	1527,58
714,59	1488,67
714,78	1503,00
714,97	1507,71
715,15	1492,35
715,34	1528,40
715,52	1454,47
715,71	1489,90
715,89	1470,85
716,08	1501,16
716,26	1452,21
716,45	1470,24
716,63	1488,26
716,82	1490,31
717,00	1441,16
717,19	1550,93
717,37	1478,02
717,56	1481,09
717,74	1486,21
717,93	1499,32
718,11	1529,83
718,30	1438,90
718,48	1510,17
718,67	1523,07
718,85	1466,76
719,04	1473,31
719,22	1457,33
719,41	1525,94
719,59	1559,53
719,78	1468,19
719,96	1470,85
720,15	1510,38
720,33	1485,39
720,52	1492,35
720,70	1442,38
720,88	1555,43
721,07	1458,56
721,25	1464,91
721,44	1460,41
721,62	1509,56
721,81	1423,34
721,99	1427,84
722,18	1465,53
722,36	1498,50
722,55	1453,65
722,73	1485,60
722,92	1502,59
723,10	1465,32
723,28	1514,06
723,47	1506,69
723,65	1548,47
723,84	1518,57
724,02	1458,36
724,21	1516,73
724,39	1446,69
724,58	1448,94
724,76	1538,43
724,94	1460,41
725,13	1487,23
725,31	1509,35
725,50	1506,28
725,68	1507,71
725,87	1468,39
726,05	1502,39
726,23	1496,04
726,42	1478,02
726,60	1469,21
726,79	1486,42
726,97	1485,39
727,16	1561,37
727,34	1507,51
727,52	1468,80
727,71	1540,07
727,89	1438,29
728,08	1450,37
728,26	1492,56
728,44	1490,51
728,63	1552,16
728,81	1497,47
729,00	1483,14
729,18	1486,01
729,36	1460,61
729,55	1534,13
729,73	1514,88
729,92	1490,72
730,10	1455,70
730,28	1437,06
730,47	1473,92
730,65	1464,09
730,84	1565,26
731,02	1437,06
731,20	1545,40
731,39	1493,58
731,57	1518,57
731,75	1523,69
731,94	1452,62
732,12	1532,50
732,31	1490,51
732,49	1460,20
732,67	1499,73
732,86	1448,32
733,04	1483,75
733,22	1458,15
733,41	1448,32
733,59	1482,52
733,78	1498,29
733,96	1513,65
734,14	1440,34
734,33	1436,04
734,51	1506,49
734,69	1492,56
734,88	1486,21
735,06	1456,31
735,24	1488,26
735,43	1543,76
735,61	1449,76
735,79	1499,52
735,98	1489,49
736,16	1587,79
736,34	1481,71
736,53	1487,64
736,71	1496,66
736,89	1505,05
737,08	1520,62
737,26	1484,57
737,44	1465,73
737,63	1486,83
737,81	1460,20
737,99	1521,03
738,18	1519,59
738,36	1569,97
738,54	1499,52
738,73	1497,68
738,91	1551,75
739,09	1493,58
739,28	1491,33
739,46	1475,77
739,64	1498,91
739,82	1541,10
740,01	1450,78
740,19	1604,99
740,37	1483,96
740,56	1490,10
740,74	1466,55
740,92	1505,46
741,11	1443,82
741,29	1490,51
741,47	1564,65
741,65	1468,39
741,84	1483,55
742,02	1543,76
742,20	1489,08
742,39	1485,19
742,57	1483,96
742,75	1464,30
742,93	1465,12
743,12	1486,62
743,30	1484,78
743,48	1468,39
743,67	1509,76
743,85	1444,23
744,03	1546,83
744,21	1486,01
744,40	1495,02
744,58	1491,33
744,76	1478,63
744,94	1462,25
745,13	1471,06
745,31	1478,02
745,49	1476,79
745,67	1422,11
745,86	1473,10
746,04	1498,50
746,22	1487,03
746,40	1454,47
746,59	1436,04
746,77	1524,71
746,95	1549,08
747,13	1487,23
747,32	1522,46
747,50	1503,41
747,68	1492,56
747,86	1461,02
748,05	1563,01
748,23	1481,91
748,41	1519,18
748,59	1448,94
748,77	1467,78
748,96	1479,86
749,14	1424,77
749,32	1584,92
749,50	1525,53
749,69	1523,69
749,87	1516,73
750,05	1493,99
750,23	1489,90
750,41	1462,86
750,60	1547,24
750,78	1457,33
750,96	1492,35
751,14	1508,12
751,32	1480,07
751,51	1433,58
751,69	1441,36
751,87	1446,28
752,05	1495,43
752,23	1505,46
752,42	1474,13
752,60	1497,88
752,78	1501,16
752,96	1460,41
753,14	1503,00
753,33	1465,12
753,51	1468,60
753,69	1485,60
753,87	1502,39
754,05	1521,44
754,23	1494,20
754,42	1453,65
754,60	1479,86
754,78	1551,13
754,96	1466,55
755,14	1465,94
755,32	1524,71
755,51	1459,79
755,69	1483,34
755,87	1458,97
756,05	1465,12
756,23	1516,93
756,41	1508,33
756,60	1509,76
756,78	1503,41
756,96	1464,30
757,14	1506,90
757,32	1441,97
757,50	1507,30
757,68	1463,48
757,87	1475,77
758,05	1482,73
758,23	1470,24
758,41	1534,34
758,59	1542,94
758,77	1545,19
758,95	1520,41
759,14	1488,05
759,32	1544,37
759,50	1480,68
759,68	1458,36
759,86	1479,04
760,04	1472,08
760,22	1505,46
760,40	1635,71
760,59	1488,05
760,77	1516,73
760,95	1462,04
761,13	1458,77
761,31	1519,18
761,49	1508,94
761,67	1516,93
761,85	1461,02
762,03	1471,47
762,22	1558,71
762,40	1526,56
762,58	1483,96
762,76	1484,98
762,94	1498,70
763,12	1503,82
763,30	1533,11
763,48	1501,57
763,66	1477,81
763,84	1477,20
764,02	1486,62
764,21	1490,51
764,39	1606,02
764,57	1469,21
764,75	1475,97
764,93	1520,82
765,11	1484,98
765,29	1490,92
765,47	1480,27
765,65	1481,09
765,83	1507,51
766,01	1507,10
766,19	1513,86
766,37	1570,38
766,56	1513,45
766,74	1480,48
766,92	1474,95
767,10	1486,83
767,28	1513,45
767,46	1526,56
767,64	1477,00
767,82	1529,63
768,00	1478,84
768,18	1477,61
768,36	1503,62
768,54	1557,89
768,72	1536,18
768,90	1437,26
769,08	1425,39
769,26	1509,15
769,44	1464,30
769,62	1470,24
769,80	1527,99
769,98	1496,25
770,16	1456,31
770,34	1504,85
770,52	1462,25
770,71	1508,12
770,89	1469,62
771,07	1568,54
771,25	1500,55
771,43	1540,89
771,61	1510,79
771,79	1497,07
771,97	1488,67
772,15	1490,10
772,33	1524,71
772,51	1542,12
772,69	1460,61
772,87	1504,64
773,05	1504,85
773,23	1532,90
773,41	1525,33
773,59	1539,66
773,77	1480,89
773,95	1526,35
774,13	1512,02
774,31	1520,62
774,49	1529,01
774,67	1469,21
774,85	1495,84
775,03	1463,89
775,21	1491,95
775,39	1476,59
775,57	1469,21
775,75	1525,94
775,93	1464,09
776,10	1457,33
776,28	1526,97
776,46	1474,13
776,64	1481,50
776,82	1447,50
777,00	2333,05
777,18	1439,31
777,36	1511,81
777,54	1455,49
777,72	1443,61
777,90	1510,38
778,08	1457,95
778,26	1452,62
778,44	1463,07
778,62	1495,22
778,80	1581,85
778,98	1524,71
779,16	1445,66
779,34	1582,26
779,52	1468,39
779,70	1539,66
779,88	1472,49
780,05	1477,61
780,23	1472,08
780,41	1459,79
780,59	1480,89
780,77	1520,21
780,95	1492,15
781,13	1549,70
781,31	1480,27
781,49	1546,42
781,67	1514,27
781,85	1485,60
782,03	1492,56
782,21	1486,83
782,39	1485,80
782,56	1502,59
782,74	1520,82
782,92	1476,59
783,10	1594,55
783,28	1470,44
783,46	1452,21
783,64	1535,77
783,82	1514,47
784,00	1527,78
784,18	1503,62
784,35	1463,89
784,53	1476,59
784,71	1473,31
784,89	1457,95
785,07	1512,83
785,25	1533,93
785,43	1539,46
785,61	1466,14
785,79	1479,04
785,96	1539,87
786,14	1469,83
786,32	1526,56
786,50	1505,26
786,68	1444,23
786,86	1487,44
787,04	1508,94
787,22	1489,90
787,39	1507,30
787,57	1469,62
787,75	1515,50
787,93	1515,91
788,11	1446,48
788,29	1501,57
788,47	1479,86
788,65	1467,57
788,82	1487,85
789,00	1480,89
789,18	1495,02
789,36	1498,09
789,54	1477,81
789,72	1472,90
789,89	1492,35
790,07	1531,88
790,25	1532,50
790,43	1485,19
790,61	1512,02
790,79	1488,46
790,96	1490,72
791,14	1558,71
791,32	1428,66
791,50	1505,26
791,68	1536,39
791,86	1480,89
792,03	1486,83
792,21	1486,42
792,39	1481,91
792,57	1460,82
792,75	1442,18
792,93	1499,52
793,10	1478,43
793,28	1478,02
793,46	1465,53
793,64	1501,78
793,82	1581,44
793,99	1516,52
794,17	1435,63
794,35	1493,79
794,53	1499,52
794,71	1417,81
794,88	1465,32
795,06	1499,52
795,24	1482,93
795,42	1473,31
795,60	1521,44
795,77	1455,90
795,95	1499,32
796,13	1485,60
796,31	1530,24
796,49	1583,49
796,66	1488,67
796,84	1462,25
797,02	1532,09
797,20	1500,55
797,37	1505,46
797,55	1425,18
797,73	1448,53
797,91	1449,96
798,08	1489,69
798,26	1506,69
798,44	1460,41
798,62	1465,94
798,80	1454,67
798,97	1471,67
799,15	1476,59
799,33	1548,06
799,51	1539,66
799,68	1493,79
799,86	1512,22
800,04	1490,31
800,22	1494,61
800,39	1475,36
800,57	1559,32
800,75	1513,24
800,93	1510,17
801,10	1501,57
801,28	1569,15
801,46	1464,91
801,63	1493,79
801,81	1529,01
801,99	1497,27
802,17	1490,72
802,34	1569,56
802,52	1462,25
802,70	1529,42
802,88	1508,12
803,05	1557,69
803,23	1455,90
803,41	1467,57
803,58	1517,75
803,76	1532,29
803,94	1556,66
804,12	1534,75
804,29	1450,37
804,47	1556,46
804,65	1497,47
804,82	1501,57
805,00	1490,72
805,18	1533,31
805,35	1486,83
805,53	1504,23
805,71	1491,33
805,89	1520,82
806,06	1540,89
806,24	1451,19
806,42	1466,96
806,59	1465,32
806,77	1541,30
806,95	1512,42
807,12	1511,20
807,30	1533,52
807,48	1464,09
807,65	1454,47
807,83	1528,60
808,01	1499,93
808,18	1499,93
808,36	1521,44
808,54	1429,07
808,71	1473,51
808,89	1518,36
809,07	1523,89
809,24	1536,18
809,42	1588,61
809,60	1465,94
809,77	1515,91
809,95	1517,34
810,13	1494,81
810,30	1494,40
810,48	1549,08
810,66	1495,22
810,83	1509,15
811,01	1523,28
811,18	1521,23
811,36	1415,35
811,54	1495,63
811,71	1525,12
811,89	1506,69
812,07	1474,74
812,24	1586,36
812,42	1477,61
812,59	1510,79
812,77	1539,05
812,95	1524,71
813,12	1500,75
813,30	1479,25
813,48	1479,04
813,65	1522,87
813,83	1540,07
814,00	1528,81
814,18	1534,34
814,36	1487,85
814,53	1506,69
814,71	1479,66
814,88	1541,51
815,06	1476,59
815,24	1547,45
815,41	1464,30
815,59	1509,35
815,76	1507,51
815,94	1546,42
816,12	1504,23
816,29	1554,41
816,47	1516,32
816,64	1571,41
816,82	1462,45
817,00	1527,38
817,17	1510,79
817,35	1611,34
817,52	1494,20
817,70	1504,44
817,87	1538,43
818,05	1493,58
818,23	1498,50
818,40	1535,77
818,58	1520,21
818,75	1480,48
818,93	1504,64
819,10	1536,39
819,28	1505,46
819,46	1519,80
819,63	1481,09
819,81	1564,85
819,98	1463,68
820,16	1537,82
820,33	1450,78
820,51	1549,70
820,68	1503,62
820,86	1506,69
821,03	1587,99
821,21	1533,52
821,39	1591,07
821,56	1498,50
821,74	1443,82
821,91	1494,61
822,09	1508,94
822,26	1495,43
822,44	1463,68
822,61	1478,43
822,79	1527,38
822,96	1497,07
823,14	1509,56
823,31	1488,26
823,49	1549,70
823,66	1522,46
823,84	1500,55
824,01	1482,73
824,19	1444,84
824,36	1524,71
824,54	1544,37
824,71	1557,48
824,89	1547,65
825,06	1567,92
825,24	1513,86
825,41	1522,87
825,59	1492,56
825,76	1560,76
825,94	1506,90
826,11	1533,52
826,29	1486,83
826,46	1529,63
826,64	1560,55
826,81	1533,31
826,99	1505,26
827,16	1493,58
827,34	1463,27
827,51	1479,66
827,69	1590,66
827,86	1508,74
828,04	1529,83
828,21	1529,83
828,39	1532,09
828,56	1534,75
828,74	1572,02
828,91	1494,40
829,09	1601,72
829,26	1486,21
829,43	1566,08
829,61	1529,83
829,78	1499,11
829,96	1515,50
830,13	1481,30
830,31	1544,78
830,48	1513,04
830,66	1482,32
830,83	1491,95
831,01	1498,09
831,18	1488,46
831,35	1512,83
831,53	1561,99
831,70	1554,00
831,88	1627,32
832,05	1545,81
832,23	1496,86
832,40	1520,62
832,57	1560,35
832,75	1491,33
832,92	1544,58
833,10	1573,66
833,27	1543,55
833,45	1504,64
833,62	1520,82
833,79	1517,14
833,97	1481,50
834,14	1514,88
834,32	1534,13
834,49	1484,57
834,66	1505,05
834,84	1462,66
835,01	1565,88
835,19	1498,29
835,36	1494,40
835,53	1580,62
835,71	1530,24
835,88	1520,62
836,06	1550,93
836,23	1610,52
836,40	1473,92
836,58	1496,25
836,75	1519,59
836,93	1497,27
837,10	1524,30
837,27	1506,69
837,45	1519,80
837,62	1477,40
837,79	1482,52
837,97	1534,34
838,14	1482,11
838,32	1545,60
838,49	1512,63
838,66	1537,82
838,84	1561,78
839,01	1554,00
839,18	1533,52
839,36	1490,31
839,53	1494,81
839,70	1554,61
839,88	1506,69
840,05	1559,12
840,23	1522,05
840,40	1495,22
840,57	1519,18
840,75	1529,42
840,92	1592,50
841,09	1538,02
841,27	1564,44
841,44	1531,06
841,61	1564,03
841,79	1540,69
841,96	1538,02
842,13	1462,45
842,31	1523,28
842,48	1516,93
842,65	1479,66
842,83	1520,41
843,00	1544,17
843,17	1509,35
843,35	1571,41
843,52	1478,63
843,69	1540,69
843,86	1495,43
844,04	1491,95
844,21	1503,41
844,38	1539,25
844,56	1543,14
844,73	1535,77
844,90	1546,83
845,08	1536,18
845,25	1552,36
845,42	1549,49
845,60	1544,99
845,77	1528,81
845,94	1498,29
846,11	1535,16
846,29	1571,00
846,46	1499,32
846,63	1524,92
846,81	1587,79
846,98	1509,15
847,15	1531,27
847,32	1552,97
847,50	1503,00
847,67	1516,32
847,84	1511,40
848,01	1549,90
848,19	1547,04
848,36	1545,19
848,53	1477,40
848,71	1581,24
848,88	1506,90
849,05	1491,95
849,22	1553,38
849,40	1544,37
849,57	1561,78
849,74	1543,55
849,91	1530,04
850,09	1517,75
850,26	1490,31
850,43	1516,32
850,60	1506,49
850,78	1542,73
850,95	1523,48
851,12	1524,51
851,29	1581,85
851,47	1576,94
851,64	1553,59
851,81	1493,58
851,98	1520,21
852,15	1586,77
852,33	1487,23
852,50	1529,42
852,67	1558,91
852,84	1517,54
853,02	1595,78
853,19	1599,87
853,36	1524,10
853,53	1480,48
853,70	1620,15
853,88	1573,86
854,05	1550,72
854,22	1520,62
854,39	1557,07
854,56	1568,54
854,74	1504,23
854,91	1540,28
855,08	1460,41
855,25	1550,31
855,42	1508,33
855,60	1516,93
855,77	1589,63
855,94	1609,91
856,11	1531,47
856,28	1527,58
856,46	1570,38
856,63	1491,13
856,80	1491,74
856,97	1584,10
857,14	1565,88
857,31	1504,44
857,49	1535,77
857,66	1567,52
857,83	1504,23
858,00	1506,90
858,17	1510,38
858,34	1525,33
858,52	1506,28
858,69	1531,06
858,86	1541,30
859,03	1506,28
859,20	1569,36
859,37	1554,20
859,55	1510,99
859,72	1559,94
859,89	1543,76
860,06	1574,27
860,23	1573,86
860,40	1528,40
860,57	1561,78
860,75	1494,20
860,92	1585,13
861,09	1558,50
861,26	1590,86
861,43	1520,82
861,60	1553,59
861,77	1493,38
861,95	1512,83
862,12	1552,77
862,29	1506,69
862,46	1566,90
862,63	1576,53
862,80	1591,48
862,97	1592,09
863,14	1502,19
863,31	1602,13
863,49	1539,87
863,66	1546,42
863,83	1592,91
864,00	1589,22
864,17	1513,04
864,34	1553,38
864,51	1485,80
864,68	1543,76
864,85	1517,95
865,02	1563,83
865,20	1562,19
865,37	1528,19
865,54	1533,93
865,71	1552,36
865,88	1523,69
866,05	1500,55
866,22	1525,94
866,39	1508,33
866,56	1518,77
866,73	1518,98
866,90	1594,55
867,07	1588,20
867,25	1533,31
867,42	1589,02
867,59	1539,46
867,76	1608,68
867,93	1521,03
868,10	1549,49
868,27	1522,66
868,44	1571,20
868,61	1542,12
868,78	1562,19
868,95	1498,50
869,12	1585,33
869,29	1558,09
869,46	1582,67
869,63	1551,54
869,80	1500,34
869,97	1576,53
870,14	1534,13
870,32	1545,60
870,49	1550,93
870,66	1584,92
870,83	1542,33
871,00	1514,27
871,17	1524,30
871,34	1562,40
871,51	1560,35
871,68	1509,76
871,85	1572,64
872,02	1610,93
872,19	1558,50
872,36	1508,53
872,53	1576,12
872,70	1553,59
872,87	1507,71
873,04	1511,40
873,21	1494,40
873,38	1522,46
873,55	1584,31
873,72	1558,50
873,89	1554,61
874,06	1490,92
874,23	1492,97
874,40	1490,92
874,57	1531,88
874,74	1612,16
874,91	1507,30
875,08	1538,23
875,25	1559,53
875,42	1583,28
875,59	1546,83
875,76	1550,72
875,93	1522,87
876,10	1591,27
876,27	1520,41
876,44	1618,30
876,61	1568,54
876,78	1526,56
876,95	1566,49
877,12	1523,69
877,29	1543,14
877,46	1543,14
877,62	1508,74
877,79	1497,88
877,96	1567,11
878,13	1520,21
878,30	1523,89
878,47	1572,02
878,64	1561,58
878,81	1559,94
878,98	1548,06
879,15	1587,38
879,32	1590,45
879,49	1556,25
879,66	1571,41
879,83	1527,17
880,00	1615,03
880,17	1482,32
880,34	1573,04
880,51	1535,36
880,67	1578,78
880,84	1463,89
881,01	1529,83
881,18	1584,31
881,35	1512,83
881,52	1635,71
881,69	1529,63
881,86	1594,96
882,03	1533,93
882,20	1561,99
882,37	1540,89
882,54	1588,61
882,70	1527,99
882,87	1511,20
883,04	1584,51
883,21	1570,59
883,38	1508,74
883,55	1508,94
883,72	1528,81
883,89	1493,58
884,06	1504,03
884,23	1486,62
884,39	1463,48
884,56	1566,70
884,73	1557,69
884,90	1533,93
885,07	1584,72
885,24	1539,66
885,41	1638,38
885,58	1545,81
885,74	1517,14
885,91	1545,40
886,08	1553,59
886,25	1521,85
886,42	1504,23
886,59	1547,85
886,76	1487,03
886,93	1446,28
887,09	1574,27
887,26	1656,40
887,43	1519,39
887,60	1540,69
887,77	1541,51
887,94	1579,60
888,10	1645,13
888,27	1575,91
888,44	1561,58
888,61	1469,21
888,78	1485,19
888,95	1560,76
889,12	1493,99
889,28	1575,09
889,45	1527,58
889,62	1524,10
889,79	1523,89
889,96	1542,33
890,13	1528,60
890,29	1530,04
890,46	1594,34
890,63	1540,48
890,80	1524,92
890,97	1514,47
891,13	1494,20
891,30	1548,06
891,47	1645,95
891,64	1518,57
891,81	1508,94
891,98	1515,29
892,14	1539,87
892,31	1530,45
892,48	1518,16
892,65	1497,27
892,82	1520,00
892,98	1459,79
893,15	1534,95
893,32	1548,26
>>>>>End Processed Spectral Data<<<<<
