SpectraSuite Datei
++++++++++++++++++++++++++++++++++++
Datum: Thu Mar 09 10:16:40 CET 2017
Benutzer: Admin
Dark-Spektrum vorhanden: Nein
Referenz-Spektrum vorhanden: Nein
Zahl der probierten Teilspektren: 1
Spektrometer: USB4F05832
Integrationszeit (usec): 100000 (USB4F05832)
Spektren Durchschnitt berechnet: 10 (USB4F05832)
Boxcar Glättung: 0 (USB4F05832)
Dunkelstromkorrektur: Nein (USB4F05832)
Puls/Lampe aktiviert: Nein (USB4F05832)
Correct for Detector Non-linearity: Nein (USB4F05832)
Streulichtkorrektur: Nein (USB4F05832)
Anzahl Pixel in verarbeitetem Spektrum: 3648
>>>>>Begin Processed Spectral Data<<<<<
177,54	1337,12
177,75	1337,12
177,97	1337,12
178,19	1316,23
178,41	1334,87
178,63	1504,44
178,85	1404,91
179,07	1442,59
179,29	1467,98
179,51	1389,55
179,73	1489,90
179,95	1453,65
180,17	1464,30
180,39	1521,03
180,61	1496,25
180,83	1538,43
181,05	1436,85
181,27	1462,25
181,49	1469,21
181,71	1481,09
181,92	1557,69
182,14	1496,45
182,36	1453,44
182,58	1498,09
182,80	1458,77
183,02	1560,35
183,24	1543,55
183,46	1503,82
183,68	1469,21
183,90	1509,35
184,12	1447,50
184,34	1512,63
184,56	1470,85
184,78	1446,07
185,00	1479,25
185,21	1526,15
185,43	1432,96
185,65	1514,88
185,87	1465,12
186,09	1553,38
186,31	1493,17
186,53	1500,96
186,75	1513,45
186,97	1548,67
187,19	1548,88
187,41	1442,59
187,63	1551,13
187,84	1426,41
188,06	1527,78
188,28	1471,06
188,50	1519,59
188,72	1551,75
188,94	1503,41
189,16	1449,14
189,38	1461,84
189,60	1473,10
189,82	1470,24
190,03	1518,98
190,25	1488,26
190,47	1553,38
190,69	1485,80
190,91	1457,33
191,13	1478,63
191,35	1563,83
191,57	1481,91
191,79	1490,72
192,01	1505,05
192,22	1532,09
192,44	1465,32
192,66	1492,35
192,88	1515,50
193,10	1478,02
193,32	1467,57
193,54	1567,52
193,76	1557,69
193,98	1481,30
194,19	1505,26
194,41	1473,72
194,63	1469,21
194,85	1496,45
195,07	1538,84
195,29	1433,17
195,51	1524,30
195,73	1464,30
195,94	1483,96
196,16	1472,28
196,38	1571,20
196,60	1461,43
196,82	1479,04
197,04	1486,83
197,26	1455,08
197,48	1459,59
197,69	1476,59
197,91	1446,07
198,13	1478,84
198,35	1486,62
198,57	1479,45
198,79	1573,04
199,01	1507,10
199,22	1483,75
199,44	1532,90
199,66	1485,39
199,88	1495,84
200,10	1503,21
200,32	1516,52
200,54	1528,19
200,75	1591,48
200,97	1463,48
201,19	1550,93
201,41	1531,47
201,63	1473,31
201,85	1461,84
202,06	1528,19
202,28	1470,24
202,50	1506,69
202,72	1443,00
202,94	1457,13
203,16	1480,89
203,38	1469,21
203,59	1498,50
203,81	1533,52
204,03	1437,88
204,25	1474,95
204,47	1546,83
204,69	1495,22
204,90	1439,11
205,12	1498,91
205,34	1508,74
205,56	1460,41
205,78	1461,84
206,00	1595,57
206,21	1537,00
206,43	1514,27
206,65	1497,88
206,87	1473,10
207,09	1497,27
207,30	1448,94
207,52	1544,78
207,74	1507,71
207,96	1454,67
208,18	1483,55
208,40	1479,45
208,61	1471,67
208,83	1514,68
209,05	1458,36
209,27	1429,69
209,49	1506,49
209,70	1534,75
209,92	1521,64
210,14	1437,06
210,36	1488,05
210,58	1499,52
210,79	1505,26
211,01	1442,59
211,23	1502,19
211,45	1528,81
211,67	1506,49
211,88	1430,51
212,10	1514,88
212,32	1450,17
212,54	1513,24
212,76	1484,16
212,97	1446,07
213,19	1432,35
213,41	1547,45
213,63	1454,26
213,85	1505,05
214,06	1448,73
214,28	1551,75
214,50	1471,06
214,72	1517,75
214,94	1506,69
215,15	1471,88
215,37	1454,47
215,59	1444,43
215,81	1509,15
216,02	1504,44
216,24	1505,67
216,46	1449,55
216,68	1507,10
216,90	1504,44
217,11	1549,49
217,33	1472,90
217,55	1528,40
217,77	1523,07
217,98	1518,36
218,20	1516,52
218,42	1541,51
218,64	1508,53
218,85	1557,89
219,07	1494,40
219,29	1493,17
219,51	1534,13
219,73	1492,35
219,94	1493,38
220,16	1563,21
220,38	1504,64
220,60	1493,79
220,81	1446,48
221,03	1440,34
221,25	1521,85
221,47	1434,40
221,68	1496,66
221,90	1497,88
222,12	1474,74
222,34	1493,38
222,55	1548,88
222,77	1556,05
222,99	1468,39
223,21	1526,56
223,42	1548,88
223,64	1541,30
223,86	1487,03
224,08	1500,14
224,29	1539,46
224,51	1522,05
224,73	1505,87
224,94	1500,34
225,16	1498,09
225,38	1471,47
225,60	1505,67
225,81	1467,78
226,03	1474,95
226,25	1430,10
226,47	1501,98
226,68	1517,54
226,90	1516,11
227,12	1485,60
227,33	1518,98
227,55	1475,97
227,77	1473,10
227,99	1551,34
228,20	1482,73
228,42	1488,87
228,64	1523,28
228,86	1486,21
229,07	1499,93
229,29	1451,19
229,51	1404,70
229,72	1570,38
229,94	1483,55
230,16	1538,64
230,38	1473,72
230,59	1469,62
230,81	1568,95
231,03	1490,31
231,24	1490,72
231,46	1478,43
231,68	1490,92
231,89	1487,23
232,11	1465,94
232,33	1548,26
232,55	1491,13
232,76	1524,51
232,98	1498,29
233,20	1478,63
233,41	1461,23
233,63	1491,54
233,85	1478,84
234,06	1487,23
234,28	1527,99
234,50	1460,41
234,71	1527,38
234,93	1557,69
235,15	1520,00
235,37	1431,53
235,58	1502,59
235,80	1454,67
236,02	1458,97
236,23	1483,34
236,45	1464,09
236,67	1527,78
236,88	1504,03
237,10	1536,59
237,32	1529,83
237,53	1505,26
237,75	1489,90
237,97	1437,06
238,18	1498,70
238,40	1504,03
238,62	1466,55
238,83	1475,97
239,05	1473,72
239,27	1486,62
239,48	1475,36
239,70	1497,27
239,92	1564,03
240,13	1542,94
240,35	1474,33
240,57	1506,28
240,78	1499,32
241,00	1460,00
241,22	1475,36
241,43	1568,54
241,65	1484,37
241,87	1545,19
242,08	1610,93
242,30	1469,42
242,52	1492,56
242,73	1543,35
242,95	1494,81
243,16	1498,70
243,38	1562,40
243,60	1498,70
243,81	1517,54
244,03	1547,45
244,25	1441,97
244,46	1501,57
244,68	1466,96
244,90	1497,68
245,11	1448,12
245,33	1491,74
245,55	1503,00
245,76	1492,35
245,98	1470,03
246,19	1576,12
246,41	1555,23
246,63	1532,90
246,84	1566,29
247,06	1492,56
247,28	1525,53
247,49	1503,62
247,71	1457,95
247,92	1505,26
248,14	1561,78
248,36	1533,72
248,57	1536,18
248,79	1531,88
249,01	1477,00
249,22	1502,19
249,44	1514,47
249,65	1490,31
249,87	1507,71
250,09	1535,98
250,30	1519,18
250,52	1487,44
250,73	1539,05
250,95	1478,63
251,17	1528,19
251,38	1481,71
251,60	1473,10
251,81	1544,17
252,03	1565,26
252,25	1463,89
252,46	1463,48
252,68	1551,34
252,89	1502,80
253,11	1501,78
253,33	1517,95
253,54	1446,89
253,76	1518,16
253,97	1545,81
254,19	1527,78
254,41	1467,37
254,62	1561,99
254,84	1530,45
255,05	1526,56
255,27	1511,81
255,49	1576,53
255,70	1533,93
255,92	1496,86
256,13	1455,90
256,35	1519,80
256,56	1526,35
256,78	1534,13
257,00	1513,65
257,21	1501,16
257,43	1466,76
257,64	1494,61
257,86	1540,69
258,08	1485,39
258,29	1573,25
258,51	1457,95
258,72	1509,76
258,94	1547,24
259,15	1518,36
259,37	1529,01
259,59	1443,61
259,80	1508,53
260,02	1502,19
260,23	1497,07
260,45	1447,09
260,66	1514,88
260,88	1513,45
261,09	1508,94
261,31	1502,80
261,53	1559,73
261,74	1558,30
261,96	1422,31
262,17	1463,27
262,39	1512,02
262,60	1482,93
262,82	1513,24
263,03	1493,79
263,25	1523,89
263,46	1498,50
263,68	1509,35
263,90	1509,35
264,11	1481,71
264,33	1555,64
264,54	1505,87
264,76	1515,70
264,97	1550,31
265,19	1473,92
265,40	1557,28
265,62	1473,31
265,83	1550,31
266,05	1480,27
266,26	1473,31
266,48	1567,72
266,70	1569,77
266,91	1465,53
267,13	1530,04
267,34	1479,66
267,56	1516,32
267,77	1500,55
267,99	1471,47
268,20	1561,17
268,42	1500,14
268,63	1464,30
268,85	1638,38
269,06	1551,13
269,28	1556,46
269,49	1505,26
269,71	1543,35
269,92	1483,75
270,14	1481,91
270,35	1498,29
270,57	1545,19
270,78	1513,86
271,00	1484,16
271,21	1604,38
271,43	1471,26
271,64	1471,88
271,86	1562,40
272,07	1431,53
272,29	1602,54
272,50	1471,67
272,72	1559,12
272,93	1554,61
273,15	1573,66
273,36	1531,06
273,58	1522,87
273,79	1506,28
274,01	1486,83
274,22	1478,84
274,44	1513,86
274,65	1528,40
274,87	1549,70
275,08	1531,27
275,30	1534,95
275,51	1623,63
275,73	1597,83
275,94	1474,74
276,16	1499,73
276,37	1496,86
276,59	1498,50
276,80	1514,06
277,02	1535,77
277,23	1493,17
277,45	1526,15
277,66	1443,20
277,88	1568,74
278,09	1584,72
278,30	1549,29
278,52	1463,27
278,73	1598,85
278,95	1524,51
279,16	1568,13
279,38	1534,13
279,59	1501,37
279,81	1474,33
280,02	1521,23
280,24	1461,43
280,45	1538,43
280,67	1554,82
280,88	1553,59
281,09	1472,08
281,31	1479,86
281,52	1505,26
281,74	1608,27
281,95	1505,87
282,17	1502,39
282,38	1528,40
282,60	1523,48
282,81	1570,18
283,02	1497,88
283,24	1496,25
283,45	1550,31
283,67	1488,87
283,88	1540,89
284,10	1489,69
284,31	1526,15
284,53	1465,73
284,74	1501,78
284,95	1526,35
285,17	1509,97
285,38	1476,18
285,60	1474,33
285,81	1463,27
286,03	1507,71
286,24	1554,41
286,45	1566,29
286,67	1490,10
286,88	1503,41
287,10	1548,26
287,31	1445,87
287,53	1520,62
287,74	1530,04
287,95	1442,79
288,17	1549,08
288,38	1514,06
288,60	1504,64
288,81	1496,04
289,02	1491,13
289,24	1572,43
289,45	1502,19
289,67	1554,00
289,88	1524,92
290,10	1526,35
290,31	1517,54
290,52	1503,82
290,74	1506,90
290,95	1547,65
291,17	1540,28
291,38	1463,27
291,59	1488,87
291,81	1499,52
292,02	1528,19
292,24	1522,66
292,45	1541,51
292,66	1541,10
292,88	1564,65
293,09	1518,16
293,31	1507,10
293,52	1496,25
293,73	1464,71
293,95	1522,46
294,16	1548,67
294,37	1512,22
294,59	1537,41
294,80	1587,18
295,02	1508,94
295,23	1486,62
295,44	1519,59
295,66	1499,11
295,87	1516,73
296,09	1500,14
296,30	1508,33
296,51	1477,20
296,73	1482,11
296,94	1478,84
297,15	1478,84
297,37	1473,10
297,58	1485,39
297,79	1503,21
298,01	1526,56
298,22	1557,28
298,44	1475,15
298,65	1527,78
298,86	1539,66
299,08	1472,69
299,29	1510,79
299,50	1490,51
299,72	1497,47
299,93	1532,09
300,14	1548,47
300,36	1473,72
300,57	1475,77
300,79	1505,26
301,00	1557,89
301,21	1451,81
301,43	1506,28
301,64	1487,44
301,85	1500,75
302,07	1541,51
302,28	1474,54
302,49	1556,25
302,71	1499,11
302,92	1546,83
303,13	1526,35
303,35	1490,51
303,56	1551,95
303,77	1455,49
303,99	1537,82
304,20	1528,40
304,41	1474,95
304,63	1479,86
304,84	1544,17
305,05	1546,22
305,27	1536,80
305,48	1534,34
305,69	1485,39
305,91	1529,83
306,12	1498,70
306,33	1517,34
306,55	1516,32
306,76	1495,63
306,97	1502,80
307,19	1480,48
307,40	1557,69
307,61	1541,71
307,82	1494,20
308,04	1550,93
308,25	1544,37
308,46	1514,47
308,68	1537,00
308,89	1564,44
309,10	1499,73
309,32	1502,59
309,53	1494,40
309,74	1536,18
309,96	1520,21
310,17	1489,49
310,38	1481,50
310,59	1510,99
310,81	1497,88
311,02	1505,26
311,23	1525,53
311,45	1508,33
311,66	1520,62
311,87	1514,68
312,09	1553,38
312,30	1503,82
312,51	1551,13
312,72	1518,36
312,94	1557,89
313,15	1513,86
313,36	1536,59
313,58	1463,07
313,79	1575,50
314,00	1528,19
314,21	1474,13
314,43	1520,62
314,64	1521,44
314,85	1483,55
315,06	1484,98
315,28	1569,56
315,49	1573,66
315,70	1534,34
315,92	1550,52
316,13	1597,83
316,34	1561,37
316,55	1520,00
316,77	1481,71
316,98	1573,45
317,19	1478,02
317,40	1437,47
317,62	1498,70
317,83	1571,82
318,04	1527,17
318,25	1499,32
318,47	1489,69
318,68	1496,25
318,89	1546,22
319,11	1506,28
319,32	1504,03
319,53	1545,19
319,74	1523,69
319,96	1529,22
320,17	1505,05
320,38	1482,52
320,59	1546,22
320,81	1524,71
321,02	1517,75
321,23	1492,56
321,44	1538,84
321,65	1505,26
321,87	1523,69
322,08	1578,98
322,29	1508,12
322,50	1475,15
322,72	1514,06
322,93	1507,51
323,14	1484,57
323,35	1506,08
323,57	1566,08
323,78	1509,76
323,99	1509,56
324,20	1554,82
324,41	1479,86
324,63	1520,00
324,84	1509,56
325,05	1501,98
325,26	1539,87
325,48	1524,51
325,69	1522,46
325,90	1539,46
326,11	1517,54
326,32	1516,73
326,54	1548,26
326,75	1517,14
326,96	1509,56
327,17	1554,82
327,39	1537,41
327,60	1520,41
327,81	1524,51
328,02	1494,20
328,23	1520,62
328,45	1528,60
328,66	1501,16
328,87	1552,36
329,08	1548,26
329,29	1538,43
329,51	1505,05
329,72	1489,90
329,93	1532,09
330,14	1470,03
330,35	1521,03
330,56	1510,58
330,78	1526,56
330,99	1530,45
331,20	1560,55
331,41	1540,07
331,62	1461,02
331,84	1526,76
332,05	1515,29
332,26	1558,30
332,47	1535,77
332,68	1479,25
332,90	1487,23
333,11	1451,60
333,32	1595,57
333,53	1512,22
333,74	1438,70
333,95	1555,84
334,17	1522,66
334,38	1503,21
334,59	1483,75
334,80	1504,85
335,01	1585,54
335,22	1518,36
335,44	1522,66
335,65	1470,65
335,86	1528,81
336,07	1507,71
336,28	1499,52
336,49	1488,26
336,71	1466,76
336,92	1572,23
337,13	1486,01
337,34	1507,51
337,55	1578,37
337,76	1495,63
337,97	1547,04
338,19	1544,58
338,40	1499,52
338,61	1531,06
338,82	1526,56
339,03	1522,87
339,24	1467,78
339,45	1482,52
339,67	1535,98
339,88	1535,36
340,09	1525,74
340,30	1511,20
340,51	1598,44
340,72	1513,65
340,93	1455,90
341,15	1528,81
341,36	1578,78
341,57	1513,45
341,78	1457,33
341,99	1526,35
342,20	1574,89
342,41	1505,87
342,62	1601,72
342,84	1444,43
343,05	1552,57
343,26	1482,93
343,47	1541,30
343,68	1469,62
343,89	1505,26
344,10	1529,22
344,31	1491,74
344,53	1449,14
344,74	1484,98
344,95	1468,60
345,16	1519,39
345,37	1526,97
345,58	1537,00
345,79	1447,91
346,00	1464,09
346,21	1477,20
346,42	1472,49
346,64	1472,08
346,85	1546,42
347,06	1518,77
347,27	1476,38
347,48	1566,70
347,69	1516,11
347,90	1501,57
348,11	1539,05
348,32	1455,49
348,53	1500,55
348,75	1486,83
348,96	1506,08
349,17	1433,99
349,38	1503,41
349,59	1499,93
349,80	1473,72
350,01	1566,49
350,22	1586,36
350,43	1508,53
350,64	1539,66
350,85	1563,42
351,06	1453,24
351,28	1499,73
351,49	1467,37
351,70	1516,11
351,91	1469,42
352,12	1487,85
352,33	1520,82
352,54	1466,76
352,75	1468,19
352,96	1493,79
353,17	1507,10
353,38	1531,27
353,59	1552,36
353,80	1592,30
354,01	1519,80
354,22	1507,92
354,44	1490,10
354,65	1551,95
354,86	1502,39
355,07	1474,13
355,28	1457,33
355,49	1481,50
355,70	1484,37
355,91	1538,43
356,12	1460,61
356,33	1455,08
356,54	1526,97
356,75	1514,47
356,96	1507,30
357,17	1548,06
357,38	1487,44
357,59	1518,16
357,80	1534,13
358,01	1521,23
358,22	1549,90
358,43	1525,94
358,64	1514,88
358,85	1466,14
359,07	1568,54
359,28	1471,47
359,49	1524,92
359,70	1479,86
359,91	1530,04
360,12	1498,91
360,33	1547,85
360,54	1469,62
360,75	1472,69
360,96	1484,37
361,17	1439,11
361,38	1467,98
361,59	1550,72
361,80	1473,31
362,01	1518,77
362,22	1512,22
362,43	1453,85
362,64	1527,17
362,85	1488,26
363,06	1588,61
363,27	1513,24
363,48	1525,33
363,69	1571,00
363,90	1466,35
364,11	1524,30
364,32	1473,72
364,53	1534,95
364,74	1506,90
364,95	1536,59
365,16	1489,28
365,37	1578,78
365,58	1470,44
365,79	1482,73
366,00	1511,61
366,21	1477,81
366,42	1544,99
366,63	1527,38
366,84	1485,80
367,05	1496,66
367,26	1529,83
367,47	1540,28
367,68	1499,52
367,89	1526,15
368,10	1507,71
368,31	1473,10
368,52	1543,35
368,73	1499,11
368,94	1463,27
369,15	1492,76
369,36	1469,62
369,57	1491,13
369,78	1476,38
369,99	1495,84
370,20	1531,27
370,40	1461,64
370,61	1452,83
370,82	1489,90
371,03	1503,82
371,24	1537,41
371,45	1528,40
371,66	1428,87
371,87	1498,29
372,08	1541,92
372,29	1490,92
372,50	1509,56
372,71	1499,93
372,92	1532,90
373,13	1474,74
373,34	1479,45
373,55	1495,43
373,76	1561,37
373,97	1508,12
374,18	1491,74
374,39	1497,07
374,60	1581,03
374,81	1529,42
375,01	1460,82
375,22	1520,82
375,43	1525,12
375,64	1484,16
375,85	1449,96
376,06	1519,80
376,27	1500,14
376,48	1549,29
376,69	1533,31
376,90	1539,46
377,11	1533,31
377,32	1507,10
377,53	1526,76
377,74	1517,34
377,94	1476,38
378,15	1509,35
378,36	1547,45
378,57	1472,90
378,78	1598,03
378,99	1474,13
379,20	1601,31
379,41	1529,83
379,62	1513,86
379,83	1450,37
380,04	1512,63
380,25	1523,48
380,45	1508,74
380,66	1555,02
380,87	1507,10
381,08	1505,67
381,29	1488,26
381,50	1539,05
381,71	1514,68
381,92	1491,13
382,13	1453,65
382,34	1534,95
382,55	1491,95
382,75	1496,45
382,96	1544,58
383,17	1489,90
383,38	1553,59
383,59	1580,83
383,80	1486,62
384,01	1501,37
384,22	1556,46
384,43	1534,95
384,63	1532,29
384,84	1470,03
385,05	1538,02
385,26	1494,20
385,47	1519,59
385,68	1492,76
385,89	1530,45
386,10	1509,56
386,30	1509,97
386,51	1449,76
386,72	1510,99
386,93	1458,77
387,14	1530,45
387,35	1526,97
387,56	1576,53
387,77	1471,26
387,97	1490,92
388,18	1477,40
388,39	1483,14
388,60	1510,99
388,81	1550,93
389,02	1526,15
389,23	1473,92
389,43	1501,78
389,64	1520,41
389,85	1486,42
390,06	1582,88
390,27	1475,97
390,48	1542,53
390,69	1480,27
390,89	1507,31
391,10	1516,93
391,31	1476,38
391,52	1495,63
391,73	1502,80
391,94	1466,96
392,14	1476,59
392,35	1461,43
392,56	1484,78
392,77	1482,73
392,98	1491,95
393,19	1560,55
393,39	1568,95
393,60	1520,82
393,81	1578,98
394,02	1560,76
394,23	1469,21
394,44	1456,92
394,64	1507,51
394,85	1518,36
395,06	1549,29
395,27	1517,54
395,48	1555,84
395,69	1567,92
395,89	1521,44
396,10	1500,75
396,31	1628,14
396,52	1483,34
396,73	1537,00
396,93	1494,61
397,14	1564,85
397,35	1566,29
397,56	1559,73
397,77	1490,31
397,97	1512,22
398,18	1524,30
398,39	1526,35
398,60	1530,65
398,81	1510,38
399,01	1493,99
399,22	1523,48
399,43	1578,37
399,64	1583,90
399,85	1565,88
400,05	1496,86
400,26	1471,06
400,47	1493,58
400,68	1479,45
400,89	1620,35
401,09	1507,30
401,30	1534,75
401,51	1554,61
401,72	1528,60
401,93	1651,69
402,13	1531,68
402,34	1586,15
402,55	1537,41
402,76	1531,88
402,96	1547,04
403,17	1559,94
403,38	1620,35
403,59	1582,47
403,80	1581,65
404,00	1589,22
404,21	1580,21
404,42	1553,18
404,63	1537,00
404,83	1567,31
405,04	1590,86
405,25	1625,68
405,46	1621,79
405,66	1587,38
405,87	1616,87
406,08	1567,92
406,29	1632,64
406,49	1542,94
406,70	1653,73
406,91	1537,41
407,12	1591,89
407,32	1644,31
407,53	1636,53
407,74	1634,48
407,95	1672,99
408,15	1630,18
408,36	1612,37
408,57	1648,00
408,78	1665,20
408,98	1668,28
409,19	1698,79
409,40	1658,24
409,61	1658,24
409,81	1700,22
410,02	1723,78
410,23	1696,95
410,44	1755,52
410,64	1654,35
410,85	1731,76
411,06	1720,50
411,26	1816,34
411,47	1773,13
411,68	1822,49
411,89	1747,74
412,09	1755,93
412,30	1815,32
412,51	1826,99
412,72	1806,92
412,92	1839,90
413,13	1850,54
413,34	1842,97
413,54	1851,98
413,75	1903,79
413,96	1935,54
414,17	1899,90
414,37	1967,69
414,58	2006,60
414,79	1995,54
414,99	2006,39
415,20	2018,48
415,41	1977,31
415,61	2055,75
415,82	2073,98
416,03	2087,49
416,24	2073,77
416,44	2115,96
416,65	2180,68
416,86	2219,79
417,06	2143,20
417,27	2201,98
417,48	2235,97
417,68	2239,25
417,89	2303,76
418,10	2266,28
418,30	2373,80
418,51	2406,36
418,72	2376,05
418,92	2433,81
419,13	2432,99
419,34	2477,63
419,55	2540,71
419,75	2967,92
419,96	2579,83
420,17	2671,17
420,37	2634,92
420,58	2665,02
420,79	2632,66
420,99	2786,26
421,20	2887,02
421,41	2832,14
421,61	2907,71
421,82	2870,84
422,03	2981,64
422,23	2936,99
422,44	3038,78
422,65	3132,78
422,85	3038,37
423,06	3176,40
423,26	3217,77
423,47	3339,62
423,68	3309,11
423,88	3349,66
424,09	3358,26
424,30	3432,19
424,50	3466,80
424,71	3549,13
424,92	3596,44
425,12	3607,50
425,33	3727,71
425,54	3695,97
425,74	3759,87
425,95	3838,30
426,15	3908,75
426,36	3840,56
426,57	4060,92
426,77	4008,28
426,98	4092,25
427,19	4107,61
427,39	4245,85
427,60	4261,41
427,81	4293,57
428,01	4407,64
428,22	4592,77
428,42	4402,52
428,63	4582,13
428,84	4610,39
429,04	4661,38
429,25	4706,85
429,45	4701,73
429,66	4838,33
429,87	4957,93
430,07	4993,56
430,28	4976,56
430,49	5072,41
430,69	5159,24
430,90	5160,27
431,10	5193,65
431,31	5345,20
431,52	5486,10
431,72	5354,62
431,93	5373,87
432,13	5579,49
432,34	5672,26
432,55	5533,00
432,75	5748,65
432,96	5892,01
433,16	5823,81
433,37	6008,33
433,58	6078,37
433,78	6143,91
433,99	5813,57
434,19	6139,20
434,40	6270,88
434,60	6353,62
434,81	6430,42
435,02	6403,38
435,22	6527,29
435,43	6512,95
435,63	6536,30
435,84	6773,25
436,05	6935,04
436,25	6636,03
436,46	7001,39
436,66	7059,76
436,87	7057,30
437,07	6961,66
437,28	7016,34
437,48	7228,10
437,69	7135,33
437,90	7281,55
438,10	7369,00
438,31	7330,70
438,51	7611,07
438,72	7586,29
438,92	7507,44
439,13	7737,23
439,34	7749,51
439,54	7853,55
439,75	7739,48
439,95	7749,72
440,16	7842,90
440,36	8002,64
440,57	7996,50
440,77	8186,35
440,98	8080,67
441,18	8061,01
441,39	8255,36
441,60	8481,05
441,80	8510,54
442,01	8404,86
442,21	8755,07
442,42	8665,77
442,62	8887,77
442,83	8900,68
443,03	9137,01
443,24	9185,55
443,44	9349,18
443,65	9414,10
443,85	9372,32
444,06	9441,75
444,26	9684,64
444,47	9672,35
444,67	9985,90
444,88	9923,64
445,09	9891,69
445,29	10186,60
445,50	10233,29
445,70	10153,62
445,91	10416,38
446,11	10203,39
446,32	10655,79
446,52	10722,75
446,73	10764,94
446,93	10936,36
447,14	11021,35
447,34	11174,13
447,55	10937,18
447,75	11384,66
447,96	11657,45
448,16	11553,82
448,37	11508,56
448,57	11621,81
448,78	11904,84
448,98	11843,20
449,19	11922,66
449,39	12342,90
449,60	12092,64
449,80	12461,48
450,01	12575,96
450,21	12559,99
450,42	12767,86
450,62	12710,31
450,83	12852,44
451,03	12917,56
451,23	13300,12
451,44	13364,84
451,64	13550,39
451,85	13507,58
452,05	13822,15
452,26	13847,14
452,46	13589,50
452,67	13889,53
452,87	13562,67
453,08	13915,95
453,28	13209,81
453,49	13977,59
453,69	13484,65
453,90	13837,92
454,10	13779,14
454,31	13817,24
454,51	13585,00
454,71	13813,96
454,92	13656,27
455,12	13558,99
455,33	13672,03
455,53	13990,49
455,74	14190,58
455,94	13991,72
456,15	14312,84
456,35	14438,59
456,55	14006,26
456,76	14248,13
456,96	14841,63
457,17	13850,62
457,37	14842,86
457,58	14153,10
457,78	14576,83
457,99	14096,37
458,19	13404,16
458,39	13715,04
458,60	14177,06
458,80	13547,52
459,01	13339,85
459,21	13076,69
459,42	13450,85
459,62	12743,49
459,82	13534,41
460,03	13050,48
460,23	12840,35
460,44	12728,94
460,64	11837,67
460,85	12811,48
461,05	11697,38
461,25	11694,72
461,46	12230,67
461,66	11789,34
461,87	11418,86
462,07	11273,66
462,27	10786,65
462,48	10686,92
462,68	10624,04
462,89	10426,82
463,09	10415,15
463,29	10202,78
463,50	9981,80
463,70	9958,25
463,91	9554,18
464,11	9574,25
464,31	9569,13
464,52	9504,21
464,72	9583,26
464,93	9181,45
465,13	9322,35
465,33	8968,46
465,54	8686,05
465,74	8556,62
465,95	8634,24
466,15	8499,89
466,35	8599,83
466,56	8416,54
466,76	8390,53
466,96	8187,16
467,17	8262,53
467,37	8079,65
467,58	7988,31
467,78	7881,20
467,98	7920,11
468,19	7649,98
468,39	7900,86
468,59	7907,62
468,80	7628,89
469,00	7486,14
469,21	7459,11
469,41	7415,69
469,61	7634,21
469,82	7330,50
470,02	7540,83
470,22	7423,68
470,43	7377,40
470,63	7264,76
470,83	7422,86
471,04	7228,10
471,24	7193,29
471,45	7141,06
471,65	7204,14
471,85	7007,53
472,06	7176,29
472,26	7066,11
472,46	7026,58
472,67	7104,20
472,87	6885,48
473,07	6846,97
473,28	6755,02
473,48	6905,75
473,68	6871,14
473,89	6770,38
474,09	6799,26
474,29	6638,90
474,50	6761,16
474,70	6601,01
474,90	6713,86
475,11	6623,54
475,31	6645,04
475,51	6542,85
475,72	6532,41
475,92	6425,30
476,12	6312,04
476,33	6441,68
476,53	6298,32
476,73	6296,89
476,93	6307,74
477,14	6249,17
477,34	6200,43
477,54	6236,27
477,75	6158,45
477,95	6094,96
478,15	6168,28
478,36	6143,29
478,56	6049,90
478,76	6137,35
478,97	6023,69
479,17	5930,92
479,37	5917,61
479,57	5941,77
479,78	5842,45
479,98	5846,75
480,18	5868,45
480,39	5796,37
480,59	5862,31
480,79	5778,96
480,99	5719,98
481,20	5732,88
481,40	5697,24
481,60	5667,34
481,81	5735,54
482,01	5658,95
482,21	5646,05
482,41	5608,77
482,62	5570,27
482,82	5538,73
483,02	5675,74
483,23	5519,07
483,43	5657,31
483,63	5522,96
483,83	5581,12
484,04	5692,74
484,24	5575,19
484,44	5576,21
484,64	5576,21
484,85	5571,50
485,05	5518,25
485,25	5501,87
485,45	5445,75
485,66	5525,62
485,86	5488,15
486,06	5531,56
486,26	5551,22
486,47	5526,24
486,67	5537,50
486,87	5541,19
487,07	5551,84
487,28	5446,78
487,48	5526,65
487,68	5603,45
487,88	5578,46
488,09	5634,99
488,29	5510,06
488,49	5602,83
488,69	5534,64
488,90	5595,67
489,10	5538,53
489,30	5515,38
489,50	5516,61
489,71	5600,38
489,91	5601,19
490,11	5623,11
490,31	5578,87
490,52	5659,56
490,72	5566,58
490,92	5739,23
491,12	5688,23
491,32	5653,21
491,53	5711,78
491,73	5658,33
491,93	5663,45
492,13	5742,09
492,33	5717,72
492,54	5730,83
492,74	5750,90
492,94	5694,99
493,14	5803,94
493,35	5766,47
493,55	5738,61
493,75	5886,68
493,95	5831,18
494,15	5815,21
494,36	5958,97
494,56	5865,59
494,76	5849,41
494,96	5903,07
495,16	5934,40
495,37	6003,62
495,57	5940,54
495,77	5973,31
495,97	5971,88
496,17	6077,76
496,37	6136,74
496,58	6161,93
496,78	6104,38
496,98	6129,98
497,18	6258,80
497,38	6289,11
497,59	6312,86
497,79	6183,02
497,99	6330,27
498,19	6307,54
498,39	6409,53
498,59	6378,19
498,80	6415,06
499,00	6432,87
499,20	6426,73
499,40	6413,83
499,60	6571,32
499,80	6650,16
500,01	6565,79
500,21	6616,37
500,41	6739,66
500,61	6838,99
500,81	6830,18
501,01	6925,82
501,22	7001,39
501,42	6982,34
501,62	7058,12
501,82	7086,18
502,02	7162,36
502,22	7149,46
502,42	7227,08
502,63	7443,75
502,83	7434,13
503,03	7484,51
503,23	7514,61
503,43	7517,48
503,63	7764,87
503,83	7884,68
504,04	7737,84
504,24	7831,23
504,44	7843,52
504,64	7996,91
504,84	8030,90
505,04	7953,08
505,24	7970,69
505,44	8001,62
505,65	8084,56
505,85	8118,15
506,05	8129,41
506,25	8196,99
506,45	8240,62
506,65	8299,80
506,85	8397,70
507,05	8675,81
507,26	8807,08
507,46	8963,34
507,66	9099,53
507,86	9202,34
508,06	9480,25
508,26	9544,56
508,46	9773,11
508,66	10013,34
508,86	10221,21
509,06	10385,45
509,27	10620,15
509,47	10695,52
509,67	10851,57
509,87	11088,32
510,07	11359,88
510,27	11418,04
510,47	11657,04
510,67	11720,32
510,87	11932,69
511,07	12059,67
511,28	12271,63
511,48	12364,61
511,68	12682,05
511,88	12715,84
512,08	13044,95
512,28	13226,40
512,48	13396,17
512,68	13540,55
512,88	13744,33
513,08	14173,79
513,28	14252,63
513,48	14445,14
513,68	14676,36
513,89	14926,83
514,09	14992,36
514,29	15393,76
514,49	15677,61
514,69	15860,08
514,89	16145,16
515,09	16527,72
515,29	16799,90
515,49	17008,18
515,69	17195,36
515,89	17552,53
516,09	17916,86
516,29	17899,66
516,49	18057,15
516,69	18444,62
516,89	18529,61
517,09	18917,09
517,29	19201,96
517,50	19319,31
517,70	19546,43
517,90	19883,52
518,10	19930,83
518,30	20570,82
518,50	20541,13
518,70	20830,30
518,90	21352,94
519,10	21579,86
519,30	21881,93
519,50	22192,81
519,70	22603,43
519,90	22760,10
520,10	23266,97
520,30	23330,05
520,50	23554,51
520,70	24087,18
520,90	24235,46
521,10	24499,85
521,30	24823,43
521,50	25639,34
521,70	25825,50
521,90	26076,79
522,10	26610,90
522,30	26533,28
522,50	27029,09
522,70	27121,25
522,90	27634,47
523,10	27910,74
523,30	28157,73
523,50	28291,25
523,70	28719,69
523,90	28873,90
524,10	29132,77
524,30	29176,18
524,50	29702,10
524,70	30181,94
524,90	30299,70
525,10	30662,19
525,30	30863,91
525,50	31300,13
525,70	31624,73
525,90	31580,09
526,10	31882,78
526,30	32354,63
526,50	32603,46
526,70	33016,12
526,90	33466,06
527,10	33572,35
527,30	34050,14
527,50	34589,37
527,70	34524,45
527,90	34710,00
528,10	34802,16
528,30	35167,51
528,50	35550,89
528,70	35739,31
528,90	36253,76
529,10	36624,44
529,30	36705,33
529,50	37239,03
529,70	37461,65
529,90	37840,73
530,10	38045,12
530,29	38117,82
530,49	38770,51
530,69	39353,77
530,89	39359,09
531,09	39452,27
531,29	39567,78
531,49	39799,82
531,69	39955,87
531,89	40174,39
532,09	40741,06
532,29	40843,66
532,49	40942,79
532,69	41410,13
532,89	41583,60
533,09	41631,31
533,29	42061,59
533,49	42173,21
533,68	42245,29
533,88	42952,87
534,08	42666,77
534,28	42841,66
534,48	43161,15
534,68	43141,69
534,88	43263,54
535,08	43697,51
535,28	43988,73
535,48	44193,12
535,68	44326,44
535,88	44958,03
536,08	45242,29
536,27	45575,91
536,47	45344,69
536,67	46239,24
536,87	46166,75
537,07	46311,33
537,27	46448,14
537,47	46597,23
537,67	46445,68
537,87	46791,99
538,07	47557,52
538,27	47294,97
538,46	47799,18
538,66	47687,57
538,86	47320,98
539,06	48124,19
539,26	47967,32
539,46	47947,25
539,66	48348,45
539,86	48448,18
540,06	48666,09
540,25	48560,41
540,45	48487,09
540,65	48877,85
540,85	49185,45
541,05	49628,22
541,25	49548,97
541,45	49987,85
541,65	49791,65
541,85	50041,50
542,04	50384,13
542,24	50543,46
542,44	50588,10
542,64	50752,76
542,84	50708,32
543,04	50797,61
543,24	50863,56
543,43	51320,05
543,63	51525,26
543,83	51595,50
544,03	51559,46
544,23	51852,93
544,43	51867,68
544,63	51863,58
544,82	52265,19
545,02	51610,25
545,22	52061,21
545,42	51577,68
545,62	52126,74
545,82	52151,52
546,02	52147,22
546,21	52138,62
546,41	52076,16
546,61	52064,08
546,81	52860,94
547,01	52418,17
547,21	53067,79
547,40	52937,94
547,60	52825,10
547,80	52596,55
548,00	53150,73
548,20	53078,84
548,40	52705,91
548,59	52908,66
548,79	53019,25
548,99	53305,35
549,19	53312,93
549,39	53122,26
549,59	53840,89
549,78	53310,26
549,98	54088,08
550,18	53780,68
550,38	54356,78
550,58	54531,47
550,77	54897,03
550,97	55018,27
551,17	54718,45
551,37	55471,28
551,57	55152,62
551,76	54943,52
551,96	54770,06
552,16	54304,35
552,36	54812,45
552,56	54338,75
552,75	54480,68
552,95	54505,87
553,15	54774,97
553,35	54719,06
553,55	54379,10
553,74	55130,70
553,94	54189,46
554,14	54268,30
554,34	54098,94
554,54	54259,70
554,73	54475,15
554,93	54509,15
555,13	54822,49
555,33	54735,04
555,53	55091,18
555,72	54740,98
555,92	54847,06
556,12	55084,01
556,32	55128,25
556,51	55446,30
556,71	55786,46
556,91	55507,74
557,11	55588,02
557,30	55850,97
557,50	55539,48
557,70	55372,36
557,90	55757,18
558,10	55828,65
558,29	55250,51
558,49	56036,52
558,69	55314,61
558,89	55268,53
559,08	55456,74
559,28	55485,82
559,48	55215,08
559,68	55367,04
559,87	55306,22
560,07	55349,02
560,27	54971,37
560,47	54804,46
560,66	55022,16
560,86	54896,42
561,06	54653,12
561,25	55096,71
561,45	55122,92
561,65	55083,19
561,85	54992,26
562,04	54914,64
562,24	54989,60
562,44	55220,41
562,64	54691,42
562,83	55186,41
563,03	55030,35
563,23	55249,69
563,42	54850,75
563,62	55104,90
563,82	54555,84
564,02	55089,34
564,21	54583,08
564,41	54463,48
564,61	54452,21
564,80	54505,46
565,00	54376,23
565,20	54346,74
565,40	54341,62
565,59	54522,05
565,79	54802,62
565,99	54823,92
566,18	54669,09
566,38	54595,57
566,58	54460,81
566,78	54815,32
566,97	55085,03
567,17	55241,09
567,37	55150,98
567,56	55238,43
567,76	54892,32
567,96	55178,22
568,15	54717,01
568,35	54869,18
568,55	54989,80
568,74	54770,67
568,94	54822,49
569,14	54742,82
569,33	54375,62
569,53	54453,44
569,73	55054,93
569,92	54704,93
570,12	54771,08
570,32	54843,17
570,52	54393,03
570,71	54721,72
570,91	54568,33
571,11	54640,22
571,30	54302,92
571,50	54523,07
571,70	54453,85
571,89	54373,98
572,09	54371,32
572,28	54785,62
572,48	54605,61
572,68	54640,63
572,87	54898,46
573,07	55066,60
573,27	54466,96
573,46	54716,40
573,66	54509,35
573,86	54086,24
574,05	54273,02
574,25	53997,36
574,45	53417,37
574,64	53933,46
574,84	54085,63
575,04	54324,62
575,23	54710,26
575,43	54809,99
575,62	54935,33
575,82	54326,26
576,02	53809,15
576,21	54548,26
576,41	54555,02
576,61	54524,71
576,80	54109,59
577,00	54147,47
577,19	54284,89
577,39	54659,26
577,59	54416,17
577,78	54130,48
577,98	54523,69
578,18	54241,89
578,37	54334,66
578,57	54580,62
578,76	54543,35
578,96	53954,15
579,16	53899,06
579,35	54475,97
579,55	53499,91
579,74	53566,47
579,94	53434,78
580,14	53566,88
580,33	53449,53
580,53	53455,26
580,72	53268,90
580,92	53238,38
581,12	53116,73
581,31	53186,16
581,51	53345,08
581,70	52914,19
581,90	53329,11
582,10	53072,09
582,29	53529,60
582,49	52892,48
582,68	53333,00
582,88	53331,56
583,07	53438,88
583,27	53081,71
583,47	53382,35
583,66	53196,81
583,86	52714,31
584,05	53043,41
584,25	52645,70
584,44	52977,06
584,64	52388,47
584,84	52572,59
585,03	52375,37
585,23	51975,40
585,42	52365,74
585,62	51861,12
585,81	51952,05
586,01	51819,75
586,20	51707,73
586,40	51488,19
586,60	51034,15
586,79	51580,76
586,99	50996,67
587,18	51452,76
587,38	51488,60
587,57	51702,81
587,77	51655,10
587,96	51908,02
588,16	51787,19
588,35	52027,62
588,55	51916,83
588,75	52036,02
588,94	51908,64
589,14	51812,38
589,33	51406,88
589,53	52190,85
589,72	51136,35
589,92	51929,32
590,11	50957,97
590,31	51353,02
590,50	51197,17
590,70	51020,23
590,89	51103,37
591,09	50749,69
591,28	50686,61
591,48	50878,92
591,67	50244,05
591,87	50747,23
592,06	50475,88
592,26	50908,61
592,45	50373,07
592,65	50850,45
592,84	50572,13
593,04	50482,63
593,23	50266,57
593,43	50547,76
593,62	49888,72
593,82	49705,02
594,01	49352,97
594,21	49676,35
594,40	49256,52
594,60	48896,28
594,79	49006,05
594,99	48711,14
595,18	48858,39
595,38	49104,76
595,57	48909,18
595,77	49232,96
595,96	49173,16
596,16	49209,62
596,35	48765,21
596,55	48836,07
596,74	49047,42
596,94	48675,51
597,13	48714,62
597,33	48861,67
597,52	48241,95
597,72	48515,36
597,91	48364,42
598,11	48162,29
598,30	47690,84
598,50	48039,20
598,69	47347,60
598,88	47420,31
599,08	46809,81
599,27	47344,53
599,47	46785,64
599,66	46999,65
599,86	46737,51
600,05	47016,86
600,25	47029,96
600,44	46515,72
600,64	46804,69
600,83	46701,88
601,02	46538,04
601,22	46465,34
601,41	45881,87
601,61	46272,63
601,80	45949,46
602,00	46228,18
602,19	45656,60
602,38	45680,56
602,58	45111,84
602,77	45435,21
602,97	45289,19
603,16	45643,49
603,36	44840,69
603,55	45631,20
603,74	45066,99
603,94	45474,94
604,13	45273,22
604,33	45543,55
604,52	45063,71
604,72	44970,32
604,91	44755,49
605,10	45211,57
605,30	44394,02
605,49	44534,72
605,69	44764,09
605,88	44461,20
606,07	44816,93
606,27	44644,90
606,46	44326,44
606,66	44310,67
606,85	43590,81
607,04	43785,98
607,24	43181,63
607,43	43560,91
607,63	42854,36
607,82	42834,50
608,01	42477,33
608,21	41890,38
608,40	42043,16
608,60	41536,49
608,79	41630,49
608,98	41536,90
609,18	41901,65
609,37	41649,95
609,57	41009,35
609,76	41328,62
609,95	41087,78
610,15	41185,88
610,34	40884,62
610,53	40575,38
610,73	40293,17
610,92	40490,19
611,11	40113,97
611,31	40394,95
611,50	40027,55
611,70	39982,70
611,89	39932,73
612,08	39854,09
612,28	39757,01
612,47	39909,18
612,66	39813,33
612,86	40030,21
613,05	39610,79
613,24	39672,02
613,44	39596,25
613,63	39516,79
613,82	39628,81
614,02	39818,45
614,21	39120,91
614,41	39453,71
614,60	39514,12
614,79	39378,96
614,99	39193,62
615,18	39705,81
615,37	39168,84
615,57	39826,44
615,76	39344,76
615,95	39334,72
616,15	39145,49
616,34	39738,99
616,53	39554,06
616,73	40015,47
616,92	39519,04
617,11	39541,16
617,30	39434,46
617,50	39498,97
617,69	39534,40
617,88	39774,22
618,08	39179,49
618,27	39767,25
618,46	39464,97
618,66	39199,76
618,85	39141,60
619,04	39037,77
619,24	39071,15
619,43	39176,62
619,62	38881,51
619,82	38930,25
620,01	38973,25
620,20	39282,50
620,39	38866,97
620,59	39184,20
620,78	39086,51
620,97	39470,30
621,17	39319,36
621,36	39700,69
621,55	39080,16
621,74	39444,29
621,94	38940,49
622,13	39158,19
622,32	38887,85
622,52	38755,56
622,71	38770,51
622,90	38709,27
623,09	38317,70
623,29	38419,07
623,48	38219,81
623,67	38420,71
623,86	38041,84
624,06	38341,25
624,25	38371,15
624,44	38314,01
624,64	38218,37
624,83	38106,35
625,02	37636,34
625,21	37901,76
625,41	37756,56
625,60	37952,14
625,79	37369,90
625,98	37475,37
626,18	37771,71
626,37	37148,92
626,56	36953,34
626,75	37456,53
626,95	36692,23
627,14	36854,02
627,33	37081,34
627,52	37103,05
627,72	36743,63
627,91	36851,76
628,10	36770,25
628,29	36788,07
628,49	36386,26
628,68	36302,91
628,87	36327,28
629,06	36637,14
629,25	36244,54
629,45	35953,12
629,64	36117,98
629,83	36012,30
630,02	35628,31
630,22	35467,75
630,41	35602,50
630,60	35359,20
630,79	35153,79
630,98	35150,72
631,18	34938,55
631,37	35175,71
631,56	34997,33
631,75	35311,69
631,94	34938,96
632,14	34517,69
632,33	34199,44
632,52	34105,85
632,71	33832,24
632,90	33545,73
633,10	33231,57
633,29	32886,49
633,48	32855,97
633,67	32775,49
633,86	32674,32
634,06	32686,20
634,25	32373,27
634,44	32601,61
634,63	32275,99
634,82	32722,04
635,02	32038,42
635,21	32498,40
635,40	32132,83
635,59	32214,75
635,78	32188,13
635,97	32222,95
636,17	31796,97
636,36	32236,26
636,55	31887,69
636,74	32213,93
636,93	31544,86
637,12	31687,20
637,32	31771,16
637,51	31418,91
637,70	31242,58
637,89	31454,75
638,08	31226,61
638,27	31178,07
638,47	30885,42
638,66	30981,26
638,85	30486,27
639,04	30886,65
639,23	30323,25
639,42	30556,31
639,62	30449,20
639,81	30324,27
640,00	30163,30
640,19	29909,56
640,38	29911,40
640,57	30072,17
640,76	29861,43
640,95	29715,82
641,15	29556,29
641,34	29444,06
641,53	29180,07
641,72	28988,59
641,91	28873,49
642,10	28592,51
642,29	28529,02
642,49	28535,99
642,68	28249,89
642,87	28447,11
643,06	28335,49
643,25	28437,27
643,44	28190,70
643,63	28247,22
643,82	28137,86
644,01	28408,19
644,21	28297,60
644,40	28511,82
644,59	28187,83
644,78	28362,32
644,97	27899,48
645,16	28164,49
645,35	27745,68
645,54	27945,56
645,73	27302,09
645,92	27454,86
646,12	27274,85
646,31	26874,06
646,50	26830,23
646,69	27061,45
646,88	26493,34
647,07	26617,65
647,26	26489,66
647,45	26298,38
647,64	26284,25
647,83	26496,62
648,02	26377,22
648,22	26302,27
648,41	26021,70
648,60	25859,91
648,79	25868,30
648,98	25995,28
649,17	25551,69
649,36	25636,06
649,55	25583,64
649,74	25500,90
649,93	25402,19
650,12	25553,53
650,31	25458,30
650,50	25208,86
650,69	25239,99
650,88	25571,76
651,08	25034,78
651,27	25333,78
651,46	24916,82
651,65	24818,72
651,84	24601,02
652,03	24858,65
652,22	24575,62
652,41	24511,11
652,60	24541,42
652,79	24358,75
652,98	23998,71
653,17	23936,04
653,36	23750,50
653,55	23765,45
653,74	23455,18
653,93	23537,92
654,12	23263,49
654,31	23523,17
654,50	23560,45
654,69	23478,32
654,88	23355,45
655,07	23368,35
655,26	23066,27
655,45	23205,12
655,64	23019,99
655,83	23102,73
656,02	22912,67
656,21	22939,09
656,40	22625,55
656,59	22920,87
656,78	22506,15
656,97	22532,16
657,17	22407,03
657,36	22267,97
657,55	21999,89
657,74	22231,93
657,93	21945,62
658,12	21854,90
658,31	21757,62
658,50	21719,94
658,69	21346,59
658,87	21593,58
659,06	21226,79
659,25	21400,25
659,44	20974,68
659,63	21095,92
659,82	20930,24
660,01	20699,02
660,20	20615,26
660,39	20647,62
660,58	20457,77
660,77	20361,52
660,96	20315,65
661,15	20182,73
661,34	20337,97
661,53	20263,01
661,72	20178,43
661,91	20310,73
662,10	20028,93
662,29	20022,99
662,48	19882,70
662,67	20051,66
662,86	19787,06
663,05	19779,90
663,24	19783,58
663,43	19419,25
663,62	19456,93
663,81	19316,24
664,00	19345,73
664,19	19115,54
664,38	19071,71
664,57	18857,70
664,76	19004,13
664,94	18880,84
665,13	18568,73
665,32	18601,90
665,51	18565,04
665,70	18487,63
665,89	18403,25
666,08	18366,59
666,27	18355,94
666,46	18263,58
666,65	18058,99
666,84	18118,17
667,03	18028,06
667,22	17908,26
667,41	18003,08
667,60	17930,58
667,78	17801,76
667,97	17869,76
668,16	17759,78
668,35	17706,33
668,54	17508,29
668,73	17579,35
668,92	17292,43
669,11	17296,53
669,30	17076,58
669,49	17053,85
669,68	16975,00
669,86	16858,47
670,05	16669,85
670,24	16591,41
670,43	16532,43
670,62	16551,07
670,81	16405,87
671,00	16385,80
671,19	16294,05
671,38	16170,35
671,57	16210,08
671,75	16175,27
671,94	16037,64
672,13	16054,23
672,32	15923,37
672,51	15855,99
672,70	15959,41
672,89	15732,70
673,08	15661,64
673,26	15780,62
673,45	15511,52
673,64	15619,24
673,83	15436,15
674,02	15394,17
674,21	15350,14
674,40	15330,89
674,59	15114,62
674,77	15170,94
674,96	15038,44
675,15	14907,98
675,34	14712,81
675,53	14747,22
675,72	14504,74
675,91	14630,28
676,09	14593,42
676,28	14581,74
676,47	14183,21
676,66	14193,04
676,85	14295,03
677,04	14343,36
677,22	14047,63
677,41	13958,75
677,60	13883,38
677,79	13736,75
677,98	13642,95
678,17	13503,69
678,36	13584,59
678,54	13561,24
678,73	13548,75
678,92	13491,61
679,11	13523,35
679,30	13493,86
679,48	13426,28
679,67	13454,95
679,86	13403,34
680,05	13319,99
680,24	13197,52
680,43	13210,42
680,61	13116,63
680,80	13044,33
680,99	12948,28
681,18	12927,80
681,37	12855,92
681,55	13061,94
681,74	12800,21
681,93	12803,29
682,12	12660,95
682,31	12627,57
682,49	12595,62
682,68	12569,41
682,87	12473,77
683,06	12437,31
683,25	12374,03
683,43	12406,39
683,62	12190,12
683,81	12315,87
684,00	12171,69
684,19	12034,68
684,37	12000,28
684,56	11913,85
684,75	11964,03
684,94	11792,41
685,12	11840,95
685,31	11736,09
685,50	11715,00
685,69	11779,71
685,88	11598,47
686,06	11664,82
686,25	11568,57
686,44	11639,63
686,63	11552,80
686,81	11718,48
687,00	11500,98
687,19	11557,71
687,38	11400,84
687,56	11343,29
687,75	11337,76
687,94	11226,56
688,13	10960,52
688,31	10976,29
688,50	10843,38
688,69	10838,67
688,88	10773,95
689,06	10712,11
689,25	10682,00
689,44	10649,85
689,63	10572,84
689,81	10648,21
690,00	10534,34
690,19	10596,80
690,38	10462,05
690,56	10362,31
690,75	10431,12
690,94	10241,07
691,13	10204,00
691,31	10232,06
691,50	10114,10
691,69	10074,78
691,87	9977,50
692,06	10062,49
692,25	9988,56
692,44	9902,34
692,62	9872,64
692,81	10034,02
693,00	9756,73
693,18	9828,61
693,37	9673,58
693,56	9658,84
693,75	9518,34
693,93	9600,26
694,12	9582,86
694,31	9446,87
694,49	9307,40
694,68	9343,65
694,87	9162,61
695,05	9351,03
695,24	9199,27
695,43	9184,53
695,62	9150,32
695,80	9159,34
695,99	9113,87
696,18	9069,02
696,36	9148,28
696,55	9009,83
696,74	8901,50
696,92	9037,07
697,11	8983,62
697,30	9012,50
697,48	8887,77
697,67	8862,38
697,86	8794,18
698,04	8748,10
698,23	8662,70
698,42	8768,99
698,60	8630,96
698,79	8627,68
698,98	8531,63
699,16	8471,83
699,35	8499,48
699,54	8479,61
699,72	8372,51
699,91	8503,17
700,10	8269,90
700,28	8275,84
700,47	8346,70
700,66	8318,23
700,84	8204,57
701,03	8121,83
701,21	8103,20
701,40	8153,78
701,59	8063,67
701,77	8028,24
701,96	7953,08
702,15	7988,10
702,33	7975,81
702,52	7963,73
702,71	7956,15
702,89	7929,53
703,08	7845,36
703,26	7902,91
703,45	7952,88
703,64	7946,73
703,82	7880,79
704,01	7803,78
704,20	7753,20
704,38	7716,54
704,57	7540,21
704,75	7582,40
704,94	7477,34
705,13	7483,07
705,31	7473,45
705,50	7461,77
705,68	7354,87
705,87	7362,65
706,06	7234,04
706,24	7257,18
706,43	7060,78
706,61	7161,34
706,80	7099,69
706,99	7155,60
707,17	7114,85
707,36	7156,01
707,54	7008,56
707,73	7091,09
707,92	7030,06
708,10	6969,24
708,29	6858,65
708,47	6927,66
708,66	6866,84
708,84	6873,80
709,03	6766,28
709,22	6804,79
709,40	6721,64
709,59	6717,13
709,77	6758,50
709,96	6679,45
710,14	6596,51
710,33	6636,44
710,52	6540,39
710,70	6618,42
710,89	6465,23
711,07	6459,70
711,26	6467,89
711,44	6488,78
711,63	6375,33
711,81	6446,19
712,00	6358,94
712,19	6345,22
712,37	6391,71
712,56	6397,24
712,74	6313,07
712,93	6318,60
713,11	6282,55
713,30	6230,13
713,48	6217,43
713,67	6211,69
713,85	6123,84
714,04	6201,25
714,22	6138,17
714,41	6175,85
714,59	6075,71
714,78	6100,28
714,97	6088,20
715,15	6017,75
715,34	6041,51
715,52	5947,30
715,71	6047,45
715,89	5958,97
716,08	5950,78
716,26	5904,70
716,45	5918,63
716,63	5925,80
716,82	5845,11
717,00	5861,08
717,19	5873,57
717,37	5812,34
717,56	5788,17
717,74	5748,65
717,93	5766,06
718,11	5746,60
718,30	5650,14
718,48	5650,96
718,67	5680,25
718,85	5529,52
719,04	5491,42
719,22	5455,58
719,41	5499,41
719,59	5447,60
719,78	5338,03
719,96	5300,55
720,15	5368,95
720,33	5360,76
720,52	5310,38
720,70	5207,78
720,88	5299,73
721,07	5202,46
721,25	5190,78
721,44	5236,86
721,62	5169,69
721,81	5154,53
721,99	5091,05
722,18	5148,59
722,36	5137,12
722,55	5142,24
722,73	5087,36
722,92	5163,54
723,10	5070,57
723,28	5085,31
723,47	5022,03
723,65	5087,97
723,84	5002,78
724,02	4981,27
724,21	4979,02
724,39	4922,91
724,58	4877,44
724,76	5010,36
724,94	4807,61
725,13	4897,51
725,31	4815,80
725,50	4884,20
725,68	4830,75
725,87	4805,15
726,05	4754,15
726,23	4706,64
726,42	4722,41
726,60	4715,45
726,79	4662,00
726,97	4705,41
727,16	4658,10
727,34	4628,41
727,52	4598,71
727,71	4649,71
727,89	4519,25
728,08	4563,08
728,26	4561,03
728,44	4494,88
728,63	4586,84
728,81	4490,17
729,00	4429,14
729,18	4468,26
729,36	4439,38
729,55	4407,64
729,73	4440,61
729,92	4363,40
730,10	4308,31
730,28	4358,49
730,47	4308,52
730,65	4359,72
730,84	4317,12
731,02	4275,75
731,20	4349,27
731,39	4254,86
731,57	4212,26
731,75	4295,20
731,94	4193,63
732,12	4315,89
732,31	4148,57
732,49	4136,08
732,67	4150,82
732,86	4094,50
733,04	4107,61
733,22	4101,26
733,41	4056,00
733,59	4087,54
733,78	4057,23
733,96	4038,80
734,14	3997,23
734,33	4017,50
734,51	3989,24
734,69	3998,66
734,88	3939,47
735,06	3954,42
735,24	3918,17
735,43	3986,37
735,61	3854,69
735,79	3865,54
735,98	3854,89
736,16	3929,64
736,34	3811,47
736,53	3858,58
736,71	3872,71
736,89	3831,34
737,08	3802,26
737,26	3822,74
737,44	3777,27
737,63	3820,08
737,81	3762,12
737,99	3832,16
738,18	3795,71
738,36	3817,21
738,54	3729,76
738,73	3744,30
738,91	3746,55
739,09	3672,42
739,28	3632,28
739,46	3670,57
739,64	3667,71
739,82	3708,26
740,01	3648,66
740,19	3782,19
740,37	3685,73
740,56	3677,95
740,74	3635,14
740,92	3663,82
741,11	3608,52
741,29	3613,85
741,47	3692,90
741,65	3514,31
741,84	3588,04
742,02	3636,37
742,20	3552,00
742,39	3484,00
742,57	3509,60
742,75	3420,11
742,93	3421,75
743,12	3416,01
743,30	3357,03
743,48	3397,99
743,67	3367,88
743,85	3315,66
744,03	3395,53
744,21	3315,66
744,40	3314,84
744,58	3293,54
744,76	3338,19
744,94	3274,70
745,13	3248,28
745,31	3293,75
745,49	3266,51
745,67	3217,77
745,86	3317,71
746,04	3270,20
746,22	3238,04
746,40	3194,63
746,59	3187,46
746,77	3258,52
746,95	3232,10
747,13	3181,93
747,32	3173,74
747,50	3191,35
747,68	3152,44
747,86	3156,33
748,05	3138,31
748,23	3144,25
748,41	3138,92
748,59	3115,57
748,77	3093,46
748,96	3102,26
749,14	3048,61
749,32	3248,28
749,50	3097,96
749,69	3097,76
749,87	3049,43
750,05	3061,51
750,23	2991,47
750,41	3008,88
750,60	3052,91
750,78	2977,75
750,96	3014,00
751,14	3055,16
751,32	2995,56
751,51	2973,04
751,69	2976,72
751,87	2920,20
752,05	2997,41
752,23	2947,64
752,42	2917,74
752,60	2980,00
752,78	2926,14
752,96	2912,42
753,14	2921,22
753,33	2877,81
753,51	2902,18
753,69	2877,81
753,87	2896,65
754,05	2946,21
754,23	2881,49
754,42	2870,64
754,60	2869,20
754,78	2937,40
754,96	2814,11
755,14	2863,47
755,32	2889,89
755,51	2830,29
755,69	2890,71
755,87	2843,20
756,05	2825,17
756,23	2854,46
756,41	2846,06
756,60	2838,48
756,78	2850,98
756,96	2793,63
757,14	2846,88
757,32	2825,38
757,50	2826,81
757,68	2829,47
757,87	2792,81
758,05	2836,85
758,23	2815,34
758,41	2896,24
758,59	2825,79
758,77	2884,77
758,95	2880,06
759,14	2831,73
759,32	2865,31
759,50	2829,27
759,68	2792,41
759,86	2822,72
760,04	2809,81
760,22	2795,27
760,40	2925,52
760,59	2837,05
760,77	2872,28
760,95	2805,10
761,13	2784,01
761,31	2864,90
761,49	2828,65
761,67	2856,71
761,85	2782,58
762,03	2783,60
762,22	2845,04
762,40	2816,57
762,58	2764,35
762,76	2786,26
762,94	2773,56
763,12	2778,68
763,30	2829,88
763,48	2755,54
763,66	2725,64
763,84	2722,57
764,02	2723,59
764,21	2741,82
764,39	2839,92
764,57	2751,86
764,75	2709,46
764,93	2695,95
765,11	2713,56
765,29	2739,57
765,47	2713,15
765,65	2671,58
765,83	2696,56
766,01	2705,57
766,19	2721,75
766,37	2766,81
766,56	2679,97
766,74	2635,94
766,92	2627,95
767,10	2666,25
767,28	2657,65
767,46	2647,20
767,64	2601,33
767,82	2656,22
768,00	2560,17
768,18	2572,45
768,36	2621,40
768,54	2657,24
768,72	2639,63
768,90	2549,11
769,08	2526,17
769,26	2563,44
769,44	2533,54
769,62	2546,03
769,80	2557,91
769,98	2512,86
770,16	2466,57
770,34	2494,22
770,52	2487,87
770,71	2481,11
770,89	2469,85
771,07	2530,27
771,25	2446,50
771,43	2485,01
771,61	2485,62
771,79	2408,82
771,97	2431,14
772,15	2439,95
772,33	2429,51
772,51	2477,22
772,69	2384,45
772,87	2450,60
773,05	2428,48
773,23	2447,73
773,41	2434,83
773,59	2448,14
773,77	2396,33
773,95	2432,78
774,13	2421,52
774,31	2438,31
774,49	2374,21
774,67	2340,83
774,85	2352,50
775,03	2319,32
775,21	2341,85
775,39	2276,11
775,57	2249,90
775,75	2334,68
775,93	2272,02
776,10	2270,99
776,28	2325,26
776,46	2232,49
776,64	2246,21
776,82	2242,53
777,00	3093,87
777,18	2225,94
777,36	2266,69
777,54	2215,29
777,72	2178,83
777,90	2218,97
778,08	2192,35
778,26	2207,10
778,44	2172,28
778,62	2203,61
778,80	2300,48
778,98	2205,46
779,16	2161,63
779,34	2254,40
779,52	2148,11
779,70	2219,59
779,88	2137,46
780,05	2120,26
780,23	2155,69
780,41	2150,16
780,59	2112,27
780,77	2150,57
780,95	2128,45
781,13	2132,55
781,31	2101,01
781,49	2153,44
781,67	2127,84
781,85	2097,32
782,03	2106,54
782,21	2111,87
782,39	2087,29
782,56	2122,72
782,74	2132,35
782,92	2104,49
783,10	2179,24
783,28	2051,66
783,46	2049,20
783,64	2122,51
783,82	2069,27
784,00	2134,39
784,18	2040,60
784,35	2024,83
784,53	2044,49
784,71	2035,07
784,89	2039,16
785,07	2049,20
785,25	2056,78
785,43	2056,16
785,61	1998,61
785,79	2043,87
785,96	2065,38
786,14	2002,30
786,32	2055,75
786,50	2058,21
786,68	1927,75
786,86	2010,08
787,04	2013,15
787,22	1995,95
787,39	1958,27
787,57	1944,55
787,75	1985,51
787,93	1975,88
788,11	1946,18
788,29	1976,29
788,47	1971,37
788,65	1945,57
788,82	1977,52
789,00	1965,03
789,18	1960,73
789,36	1935,74
789,54	1920,79
789,72	1934,51
789,89	1916,49
790,07	1975,06
790,25	1976,70
790,43	1953,35
790,61	1969,74
790,79	1908,50
790,96	1910,96
791,14	1972,19
791,32	1872,25
791,50	1955,20
791,68	1953,35
791,86	1897,03
792,03	1876,96
792,21	1921,40
792,39	1876,14
792,57	1853,41
792,75	1845,22
792,93	1916,08
793,10	1889,87
793,28	1885,77
793,46	1830,06
793,64	1926,11
793,82	1953,56
793,99	1926,11
794,17	1822,69
794,35	1883,11
794,53	1895,40
794,71	1809,99
794,88	1848,70
795,06	1870,00
795,24	1834,98
795,42	1847,68
795,60	1887,82
795,77	1834,37
795,95	1860,78
796,13	1822,49
796,31	1879,42
796,49	1931,03
796,66	1865,90
796,84	1802,62
797,02	1857,71
797,20	1854,44
797,37	1844,40
797,55	1804,26
797,73	1796,68
797,91	1772,72
798,08	1859,56
798,26	1847,88
798,44	1791,36
798,62	1770,67
798,80	1776,00
798,97	1805,90
799,15	1793,61
799,33	1876,55
799,51	1881,06
799,68	1825,15
799,86	1825,15
800,04	1795,86
800,22	1779,68
800,39	1770,06
800,57	1849,73
800,75	1805,90
800,93	1819,62
801,10	1812,25
801,28	1827,81
801,46	1767,60
801,63	1803,03
801,81	1805,08
801,99	1764,53
802,17	1776,00
802,34	1846,45
802,52	1751,63
802,70	1803,03
802,88	1799,75
803,05	1805,49
803,23	1709,64
803,41	1751,22
803,58	1776,61
803,76	1794,84
803,94	1816,75
804,12	1783,37
804,29	1717,84
804,47	1807,13
804,65	1741,80
804,82	1734,22
805,00	1721,73
805,18	1746,92
805,35	1710,26
805,53	1778,25
805,71	1742,21
805,89	1735,04
806,06	1757,57
806,24	1704,32
806,42	1709,64
806,59	1711,69
806,77	1792,79
806,95	1727,46
807,12	1740,36
807,30	1763,71
807,48	1676,26
807,65	1667,66
807,83	1751,01
808,01	1732,38
808,18	1749,17
808,36	1745,07
808,54	1690,39
808,71	1693,47
808,89	1737,50
809,07	1759,82
809,24	1753,68
809,42	1772,72
809,60	1702,07
809,77	1716,40
809,95	1733,40
810,13	1711,28
810,30	1719,68
810,48	1769,85
810,66	1683,43
810,83	1726,44
811,01	1715,99
811,18	1681,18
811,36	1629,36
811,54	1680,77
811,71	1705,96
811,89	1705,96
812,07	1652,10
812,24	1762,07
812,42	1654,76
812,59	1675,24
812,77	1704,52
812,95	1693,67
813,12	1695,92
813,30	1661,31
813,48	1670,12
813,65	1705,55
813,83	1693,06
814,00	1735,65
814,18	1709,85
814,36	1649,02
814,53	1670,73
814,71	1681,18
814,88	1720,91
815,06	1631,00
815,24	1730,33
815,41	1647,39
815,59	1666,64
815,76	1658,45
815,94	1718,86
816,12	1647,80
816,29	1696,33
816,47	1683,43
816,64	1733,20
816,82	1653,94
817,00	1708,21
817,17	1668,68
817,35	1769,04
817,52	1659,88
817,70	1673,80
817,87	1672,37
818,05	1630,59
818,23	1653,73
818,40	1702,48
818,58	1651,69
818,75	1640,22
818,93	1631,62
819,10	1655,37
819,28	1636,12
819,46	1676,47
819,63	1644,93
819,81	1691,21
819,98	1573,66
820,16	1677,29
820,33	1594,96
820,51	1717,63
820,68	1661,11
820,86	1668,28
821,03	1674,01
821,21	1631,41
821,39	1751,01
821,56	1642,47
821,74	1591,27
821,91	1624,86
822,09	1632,85
822,26	1615,23
822,44	1614,00
822,61	1584,51
822,79	1680,97
822,96	1607,04
823,14	1600,49
823,31	1601,51
823,49	1678,31
823,66	1635,30
823,84	1626,91
824,01	1618,30
824,19	1585,33
824,36	1649,02
824,54	1625,88
824,71	1660,29
824,89	1627,32
825,06	1683,43
825,24	1621,79
825,41	1632,44
825,59	1637,15
825,76	1637,15
825,94	1591,48
826,11	1658,04
826,29	1608,47
826,46	1612,16
826,64	1658,24
826,81	1630,59
826,99	1611,96
827,16	1565,26
827,34	1578,78
827,51	1595,98
827,69	1700,63
827,86	1621,38
828,04	1604,17
828,21	1606,02
828,39	1638,58
828,56	1625,27
828,74	1632,85
828,91	1608,88
829,09	1701,45
829,26	1580,83
829,43	1606,02
829,61	1603,35
829,78	1598,85
829,96	1622,20
830,13	1556,66
830,31	1626,50
830,48	1627,73
830,66	1594,55
830,83	1557,07
831,01	1560,96
831,18	1574,27
831,35	1604,17
831,53	1630,80
831,70	1629,36
831,88	1698,59
832,05	1596,19
832,23	1574,07
832,40	1609,50
832,57	1638,38
832,75	1553,18
832,92	1626,91
833,10	1642,68
833,27	1613,59
833,45	1579,80
833,62	1570,59
833,79	1590,25
833,97	1561,58
834,14	1592,50
834,32	1614,41
834,49	1523,48
834,66	1566,70
834,84	1538,02
835,01	1620,15
835,19	1531,88
835,36	1562,40
835,53	1652,30
835,71	1598,64
835,88	1603,35
836,06	1600,08
836,23	1670,94
836,40	1548,67
836,58	1552,97
836,75	1565,26
836,93	1562,80
837,10	1555,23
837,27	1572,02
837,45	1587,99
837,62	1551,13
837,79	1543,35
837,97	1593,93
838,14	1557,89
838,32	1551,54
838,49	1552,77
838,66	1580,21
838,84	1604,38
839,01	1602,13
839,18	1598,64
839,36	1568,13
839,53	1559,12
839,70	1585,13
839,88	1586,15
840,05	1591,48
840,23	1551,13
840,40	1566,70
840,57	1568,74
840,75	1592,50
840,92	1638,99
841,09	1587,38
841,27	1608,47
841,44	1568,33
841,61	1599,26
841,79	1587,59
841,96	1566,49
842,13	1519,39
842,31	1544,37
842,48	1556,46
842,65	1515,29
842,83	1560,96
843,00	1558,09
843,17	1535,98
843,35	1599,26
843,52	1529,42
843,69	1597,62
843,86	1524,51
844,04	1550,52
844,21	1550,31
844,38	1597,83
844,56	1566,70
844,73	1587,79
844,90	1578,57
845,08	1574,27
845,25	1532,29
845,42	1590,45
845,60	1585,54
845,77	1560,14
845,94	1523,89
846,11	1556,25
846,29	1611,14
846,46	1558,09
846,63	1522,05
846,81	1606,43
846,98	1551,75
847,15	1527,99
847,32	1587,79
847,50	1501,16
847,67	1536,80
847,84	1549,08
848,01	1564,85
848,19	1569,97
848,36	1557,89
848,53	1530,65
848,71	1599,67
848,88	1536,59
849,05	1497,88
849,22	1534,54
849,40	1506,08
849,57	1578,57
849,74	1553,38
849,91	1561,58
850,09	1489,08
850,26	1530,04
850,43	1530,86
850,60	1541,92
850,78	1536,18
850,95	1536,59
851,12	1509,76
851,29	1567,11
851,47	1593,11
851,64	1508,74
851,81	1546,42
851,98	1533,11
852,15	1617,08
852,33	1495,22
852,50	1523,48
852,67	1549,70
852,84	1515,50
853,02	1583,08
853,19	1596,80
853,36	1529,22
853,53	1478,43
853,70	1616,05
853,88	1589,22
854,05	1583,49
854,22	1517,14
854,39	1572,23
854,56	1570,79
854,74	1503,41
854,91	1568,13
855,08	1468,80
855,25	1538,84
855,42	1483,96
855,60	1538,84
855,77	1563,62
855,94	1612,37
856,11	1534,95
856,28	1533,93
856,46	1588,20
856,63	1509,56
856,80	1500,34
856,97	1565,88
857,14	1559,94
857,31	1536,80
857,49	1544,58
857,66	1566,90
857,83	1511,61
858,00	1518,16
858,17	1527,78
858,34	1510,99
858,52	1503,00
858,69	1535,16
858,86	1520,00
859,03	1496,45
859,20	1557,69
859,37	1530,24
859,55	1504,85
859,72	1537,41
859,89	1508,53
860,06	1564,85
860,23	1591,48
860,40	1481,09
860,57	1543,14
860,75	1487,64
860,92	1541,30
861,09	1531,27
861,26	1593,52
861,43	1535,36
861,60	1551,34
861,77	1481,09
861,95	1491,33
862,12	1532,29
862,29	1517,95
862,46	1565,06
862,63	1569,15
862,80	1557,48
862,97	1595,78
863,14	1482,73
863,31	1562,19
863,49	1547,65
863,66	1553,59
863,83	1549,90
864,00	1591,07
864,17	1517,95
864,34	1511,40
864,51	1482,93
864,68	1537,82
864,85	1522,87
865,02	1514,68
865,20	1540,48
865,37	1495,84
865,54	1534,75
865,71	1542,53
865,88	1520,82
866,05	1478,02
866,22	1528,19
866,39	1504,44
866,56	1512,22
866,73	1503,82
866,90	1587,18
867,07	1539,46
867,25	1510,17
867,42	1569,56
867,59	1514,06
867,76	1533,72
867,93	1485,60
868,10	1566,29
868,27	1471,88
868,44	1551,95
868,61	1517,54
868,78	1548,47
868,95	1458,77
869,12	1540,07
869,29	1520,82
869,46	1562,60
869,63	1548,67
869,80	1492,76
869,97	1534,54
870,14	1532,29
870,32	1509,97
870,49	1507,92
870,66	1557,28
870,83	1515,91
871,00	1496,45
871,17	1498,91
871,34	1530,45
871,51	1541,10
871,68	1485,19
871,85	1533,93
872,02	1551,54
872,19	1510,17
872,36	1465,32
872,53	1537,61
872,70	1525,12
872,87	1515,70
873,04	1458,56
873,21	1474,74
873,38	1477,40
873,55	1568,95
873,72	1531,06
873,89	1528,19
874,06	1484,16
874,23	1471,67
874,40	1464,30
874,57	1496,86
874,74	1563,21
874,91	1474,74
875,08	1491,33
875,25	1523,89
875,42	1545,40
875,59	1490,51
875,76	1535,57
875,93	1546,01
876,10	1572,84
876,27	1471,47
876,44	1601,72
876,61	1508,74
876,78	1492,15
876,95	1524,92
877,12	1512,83
877,29	1515,70
877,46	1491,13
877,62	1517,75
877,79	1472,49
877,96	1534,54
878,13	1444,02
878,30	1508,94
878,47	1540,69
878,64	1528,19
878,81	1523,89
878,98	1500,14
879,15	1569,77
879,32	1543,96
879,49	1537,21
879,66	1526,76
879,83	1509,76
880,00	1568,54
880,17	1467,98
880,34	1531,88
880,51	1481,91
880,67	1555,84
880,84	1421,90
881,01	1535,57
881,18	1550,72
881,35	1514,47
881,52	1601,51
881,69	1504,03
881,86	1560,96
882,03	1517,54
882,20	1531,27
882,37	1511,61
882,54	1546,42
882,70	1513,86
882,87	1469,21
883,04	1538,43
883,21	1528,19
883,38	1487,64
883,55	1472,28
883,72	1490,31
883,89	1488,87
884,06	1485,39
884,23	1461,64
884,39	1445,66
884,56	1548,88
884,73	1559,94
884,90	1507,51
885,07	1561,17
885,24	1501,57
885,41	1578,16
885,58	1494,81
885,74	1492,56
885,91	1537,41
886,08	1508,12
886,25	1487,23
886,42	1481,30
886,59	1533,31
886,76	1473,51
886,93	1441,97
887,09	1564,24
887,26	1609,09
887,43	1498,29
887,60	1517,14
887,77	1529,22
887,94	1525,74
888,10	1615,23
888,27	1586,56
888,44	1525,33
888,61	1464,30
888,78	1448,53
888,95	1555,84
889,12	1472,49
889,28	1538,64
889,45	1504,23
889,62	1516,11
889,79	1485,19
889,96	1517,34
890,13	1515,29
890,29	1506,49
890,46	1583,90
890,63	1523,07
890,80	1541,92
890,97	1516,32
891,13	1474,33
891,30	1553,79
891,47	1619,12
891,64	1488,26
891,81	1458,77
891,98	1468,39
892,14	1501,78
892,31	1475,77
892,48	1498,29
892,65	1479,04
892,82	1473,10
892,98	1444,84
893,15	1514,88
893,32	1528,81
>>>>>End Processed Spectral Data<<<<<
