SpectraSuite Datei
++++++++++++++++++++++++++++++++++++
Datum: Thu Mar 09 11:22:14 CET 2017
Benutzer: Admin
Dark-Spektrum vorhanden: Ja
Referenz-Spektrum vorhanden: Nein
Zahl der probierten Teilspektren: 1
Spektrometer: USB4F05832
Integrationszeit (usec): 1000 (USB4F05832)
Spektren Durchschnitt berechnet: 500 (USB4F05832)
Boxcar Glttung: 0 (USB4F05832)
Dunkelstromkorrektur: Nein (USB4F05832)
Puls/Lampe aktiviert: Nein (USB4F05832)
Correct for Detector Non-linearity: Nein (USB4F05832)
Streulichtkorrektur: Nein (USB4F05832)
Anzahl Pixel in verarbeitetem Spektrum: 3648
>>>>>Begin Processed Spectral Data<<<<<
177,54	-2,38
177,75	-2,38
177,97	-2,38
178,19	-0,75
178,41	-1,32
178,63	3,61
178,85	0,31
179,07	0,98
179,29	-1,51
179,51	-1,61
179,73	-1,71
179,95	1,62
180,17	1,83
180,39	-0,16
180,61	0,21
180,83	0,41
181,05	0,60
181,27	4,80
181,49	-0,36
181,71	1,97
181,92	-0,07
182,14	0,66
182,36	1,33
182,58	-2,54
182,80	0,90
183,02	2,60
183,24	1,77
183,46	0,79
183,68	3,11
183,90	5,76
184,12	0,55
184,34	-2,40
184,56	0,27
184,78	-1,65
185,00	1,71
185,21	2,18
185,43	1,75
185,65	0,35
185,87	-1,24
186,09	0,22
186,31	0,37
186,53	-1,24
186,75	-0,06
186,97	-1,32
187,19	0,45
187,41	0,68
187,63	0,71
187,84	0,90
188,06	-1,60
188,28	2,29
188,50	-1,60
188,72	1,43
188,94	-1,04
189,16	2,96
189,38	-1,23
189,60	4,22
189,82	-0,66
190,03	-3,05
190,25	1,63
190,47	2,43
190,69	3,23
190,91	0,18
191,13	0,87
191,35	2,68
191,57	-2,64
191,79	-2,86
192,01	0,12
192,22	-3,90
192,44	0,30
192,66	6,62
192,88	2,11
193,10	4,98
193,32	0,39
193,54	6,82
193,76	-1,83
193,98	1,21
194,19	1,60
194,41	1,42
194,63	3,47
194,85	-3,55
195,07	3,61
195,29	1,20
195,51	-1,25
195,73	-0,06
195,94	1,67
196,16	1,59
196,38	-0,86
196,60	2,35
196,82	-1,70
197,04	1,41
197,26	-2,20
197,48	-4,62
197,69	2,63
197,91	-1,18
198,13	1,18
198,35	3,81
198,57	0,02
198,79	5,32
199,01	-2,75
199,22	0,20
199,44	1,30
199,66	-0,77
199,88	3,04
200,10	1,28
200,32	4,76
200,54	1,47
200,75	0,88
200,97	0,32
201,19	5,61
201,41	0,34
201,63	-0,52
201,85	-1,06
202,06	0,37
202,28	-0,50
202,50	2,53
202,72	-0,26
202,94	3,35
203,16	2,54
203,38	-1,09
203,59	-4,04
203,81	4,24
204,03	0,93
204,25	2,82
204,47	0,77
204,69	0,83
204,90	3,43
205,12	5,53
205,34	-1,33
205,56	5,12
205,78	2,88
206,00	-5,21
206,21	-2,52
206,43	-1,08
206,65	-4,04
206,87	4,83
207,09	-1,33
207,30	-0,76
207,52	-0,35
207,74	0,33
207,96	0,44
208,18	-0,87
208,40	-1,34
208,61	1,93
208,83	3,39
209,05	5,78
209,27	3,91
209,49	1,98
209,70	4,48
209,92	-0,39
210,14	-1,84
210,36	2,21
210,58	0,15
210,79	0,62
211,01	-1,50
211,23	0,78
211,45	-0,40
211,67	0,01
211,88	0,63
212,10	0,27
212,32	-0,18
212,54	4,84
212,76	-0,78
212,97	-6,05
213,19	-3,54
213,41	0,17
213,63	-0,75
213,85	-1,64
214,06	-0,09
214,28	3,11
214,50	2,20
214,72	0,98
214,94	1,55
215,15	5,30
215,37	4,75
215,59	-0,66
215,81	0,93
216,02	-0,39
216,24	-1,81
216,46	3,20
216,68	-3,52
216,90	0,41
217,11	-0,85
217,33	0,47
217,55	3,08
217,77	1,23
217,98	1,43
218,20	0,44
218,42	0,11
218,64	-0,36
218,85	0,32
219,07	0,21
219,29	-3,04
219,51	-0,87
219,73	4,58
219,94	2,81
220,16	1,81
220,38	0,40
220,60	0,55
220,81	1,60
221,03	3,27
221,25	1,78
221,47	5,30
221,68	0,43
221,90	0,51
222,12	1,15
222,34	-1,85
222,55	3,49
222,77	2,14
222,99	2,05
223,21	-2,20
223,42	-2,79
223,64	-0,84
223,86	3,99
224,08	0,61
224,29	2,65
224,51	1,74
224,73	-1,74
224,94	-0,99
225,16	0,42
225,38	5,82
225,60	0,47
225,81	-0,27
226,03	0,71
226,25	-3,05
226,47	1,74
226,68	5,96
226,90	-1,16
227,12	1,13
227,33	-2,85
227,55	2,36
227,77	0,74
227,99	1,38
228,20	-7,82
228,42	3,12
228,64	-1,12
228,86	0,33
229,07	2,90
229,29	1,63
229,51	-0,30
229,72	6,06
229,94	-1,91
230,16	1,80
230,38	-0,12
230,59	0,26
230,81	-1,09
231,03	1,56
231,24	-3,18
231,46	2,67
231,68	0,89
231,89	-2,27
232,11	-0,79
232,33	2,96
232,55	1,97
232,76	-1,23
232,98	0,20
233,20	-0,02
233,41	4,39
233,63	2,46
233,85	1,79
234,06	-3,57
234,28	3,28
234,50	0,14
234,71	1,66
234,93	-3,73
235,15	-0,61
235,37	3,21
235,58	1,95
235,80	-0,28
236,02	-1,34
236,23	1,10
236,45	1,53
236,67	1,75
236,88	1,12
237,10	0,21
237,32	0,33
237,53	0,34
237,75	-0,06
237,97	1,42
238,18	1,29
238,40	1,95
238,62	2,91
238,83	-0,89
239,05	2,36
239,27	6,59
239,48	0,77
239,70	-0,70
239,92	1,18
240,13	3,56
240,35	3,56
240,57	3,02
240,78	1,83
241,00	0,68
241,22	-1,30
241,43	4,61
241,65	1,83
241,87	-0,80
242,08	2,06
242,30	-0,10
242,52	-0,13
242,73	3,51
242,95	-1,18
243,16	-0,70
243,38	-0,51
243,60	4,14
243,81	1,29
244,03	-0,04
244,25	-2,15
244,46	-0,61
244,68	2,36
244,90	1,32
245,11	-1,74
245,33	0,51
245,55	-0,61
245,76	0,42
245,98	1,40
246,19	2,38
246,41	-3,48
246,63	-1,21
246,84	-1,62
247,06	1,46
247,28	0,98
247,49	2,70
247,71	3,89
247,92	-0,52
248,14	4,22
248,36	0,48
248,57	2,58
248,79	0,57
249,01	-0,64
249,22	6,06
249,44	-3,90
249,65	0,93
249,87	-4,06
250,09	3,77
250,30	-4,68
250,52	0,36
250,73	2,63
250,95	-3,41
251,17	-5,10
251,38	3,81
251,60	3,85
251,81	0,01
252,03	4,77
252,25	8,43
252,46	2,06
252,68	0,01
252,89	0,12
253,11	3,57
253,33	-0,59
253,54	1,84
253,76	2,40
253,97	1,39
254,19	3,58
254,41	-1,46
254,62	1,02
254,84	-6,58
255,05	3,53
255,27	4,42
255,49	2,47
255,70	-0,38
255,92	-1,80
256,13	3,66
256,35	0,75
256,56	2,42
256,78	0,94
257,00	1,01
257,21	1,40
257,43	5,05
257,64	0,95
257,86	1,83
258,08	1,68
258,29	-1,04
258,51	4,72
258,72	0,25
258,94	2,36
259,15	-0,34
259,37	-3,76
259,59	-0,72
259,80	-0,28
260,02	0,54
260,23	1,70
260,45	-1,70
260,66	4,19
260,88	-0,52
261,09	7,05
261,31	-0,35
261,53	-1,98
261,74	1,63
261,96	2,61
262,17	-3,37
262,39	3,65
262,60	1,25
262,82	4,45
263,03	8,50
263,25	0,41
263,46	0,81
263,68	0,26
263,90	-2,09
264,11	-1,11
264,33	2,65
264,54	1,03
264,76	2,92
264,97	-1,27
265,19	5,31
265,40	1,74
265,62	-2,24
265,83	3,97
266,05	-2,88
266,26	4,00
266,48	4,92
266,70	-1,17
266,91	-1,25
267,13	1,74
267,34	0,69
267,56	0,10
267,77	1,69
267,99	-0,39
268,20	5,55
268,42	1,79
268,63	-1,36
268,85	1,81
269,06	0,49
269,28	-0,17
269,49	-0,32
269,71	-1,74
269,92	-1,13
270,14	-1,16
270,35	0,85
270,57	3,24
270,78	-0,44
271,00	0,77
271,21	0,76
271,43	-3,33
271,64	-1,12
271,86	1,84
272,07	-1,26
272,29	2,22
272,50	4,28
272,72	0,02
272,93	-0,75
273,15	0,65
273,36	-0,37
273,58	-0,05
273,79	0,11
274,01	6,08
274,22	4,54
274,44	-4,38
274,65	0,55
274,87	3,64
275,08	1,81
275,30	1,49
275,51	-4,13
275,73	0,39
275,94	0,98
276,16	0,00
276,37	-0,50
276,59	2,40
276,80	1,86
277,02	3,44
277,23	-3,86
277,45	0,44
277,66	1,60
277,88	0,91
278,09	-1,31
278,30	0,24
278,52	-0,08
278,73	-0,98
278,95	-0,84
279,16	-0,53
279,38	-1,27
279,59	0,70
279,81	1,86
280,02	1,89
280,24	-2,38
280,45	3,61
280,67	0,20
280,88	3,08
281,09	2,33
281,31	2,49
281,52	3,28
281,74	-0,84
281,95	4,36
282,17	1,90
282,38	-3,85
282,60	2,65
282,81	-1,18
283,02	4,82
283,24	6,17
283,45	4,37
283,67	3,84
283,88	0,23
284,10	4,40
284,31	1,53
284,53	1,65
284,74	-4,60
284,95	0,18
285,17	0,84
285,38	2,88
285,60	2,94
285,81	2,62
286,03	-1,79
286,24	2,89
286,45	-0,61
286,67	-0,22
286,88	5,21
287,10	1,70
287,31	-1,75
287,53	-1,71
287,74	-2,37
287,95	2,83
288,17	-2,81
288,38	-0,57
288,60	0,53
288,81	-3,53
289,02	-0,36
289,24	3,40
289,45	5,64
289,67	-2,57
289,88	0,88
290,10	1,35
290,31	2,57
290,52	5,03
290,74	-1,33
290,95	-2,48
291,17	1,05
291,38	-0,52
291,59	0,79
291,81	2,52
292,02	-0,25
292,24	9,08
292,45	-2,68
292,66	2,59
292,88	5,94
293,09	1,32
293,31	0,80
293,52	0,70
293,73	-0,59
293,95	-1,81
294,16	-2,89
294,37	2,51
294,59	2,35
294,80	-1,47
295,02	3,71
295,23	1,04
295,44	2,02
295,66	3,37
295,87	0,19
296,09	-1,70
296,30	-0,32
296,51	-0,51
296,73	0,45
296,94	0,05
297,15	3,22
297,37	-1,09
297,58	-2,11
297,79	-1,89
298,01	4,17
298,22	-1,05
298,44	0,74
298,65	4,26
298,86	2,15
299,08	2,36
299,29	2,01
299,50	-0,57
299,72	0,52
299,93	-1,79
300,14	1,96
300,36	-1,76
300,57	3,68
300,79	-0,84
301,00	0,25
301,21	-4,13
301,43	2,39
301,64	-1,43
301,85	0,13
302,07	0,95
302,28	-2,17
302,49	0,07
302,71	-3,02
302,92	1,72
303,13	1,42
303,35	0,27
303,56	1,42
303,77	5,59
303,99	-0,68
304,20	1,83
304,41	2,97
304,63	-0,24
304,84	3,04
305,05	-2,22
305,27	-2,22
305,48	4,95
305,69	2,81
305,91	-0,70
306,12	-3,89
306,33	1,64
306,55	1,51
306,76	-1,51
306,97	5,62
307,19	5,09
307,40	3,80
307,61	5,21
307,82	-1,07
308,04	2,09
308,25	-2,74
308,46	-2,81
308,68	-1,85
308,89	-2,17
309,10	-4,94
309,32	5,37
309,53	-2,09
309,74	-1,54
309,96	1,75
310,17	2,13
310,38	-0,05
310,59	-2,10
310,81	1,89
311,02	-1,05
311,23	1,17
311,45	-2,80
311,66	0,06
311,87	4,94
312,09	2,75
312,30	0,21
312,51	-0,31
312,72	-1,79
312,94	0,72
313,15	3,61
313,36	0,29
313,58	-3,81
313,79	-1,12
314,00	2,45
314,21	2,31
314,43	0,14
314,64	0,73
314,85	1,45
315,06	-1,27
315,28	0,93
315,49	2,70
315,70	2,47
315,92	-0,25
316,13	-1,54
316,34	3,91
316,55	-2,56
316,77	-0,24
316,98	0,51
317,19	-0,96
317,40	-0,08
317,62	-0,87
317,83	-1,89
318,04	1,98
318,25	-2,37
318,47	1,15
318,68	-0,16
318,89	2,15
319,11	2,08
319,32	-1,12
319,53	2,79
319,74	-0,18
319,96	3,55
320,17	3,77
320,38	-1,63
320,59	3,50
320,81	1,38
321,02	-0,51
321,23	-0,66
321,44	-0,60
321,65	2,99
321,87	-2,05
322,08	-0,76
322,29	-1,48
322,50	-2,23
322,72	-0,51
322,93	-2,33
323,14	-1,55
323,35	0,61
323,57	0,39
323,78	1,74
323,99	-1,20
324,20	1,13
324,41	-0,95
324,63	-0,42
324,84	2,27
325,05	5,31
325,26	-1,56
325,48	-2,95
325,69	2,74
325,90	-2,04
326,11	0,06
326,32	4,67
326,54	-1,09
326,75	0,21
326,96	-0,34
327,17	-2,74
327,39	-1,78
327,60	2,83
327,81	5,37
328,02	3,69
328,23	1,67
328,45	1,46
328,66	12,50
328,87	18,26
329,08	42,03
329,29	126,86
329,51	255,44
329,72	389,97
329,93	369,56
330,14	273,43
330,35	120,60
330,56	53,10
330,78	14,11
330,99	10,43
331,20	4,71
331,41	2,04
331,62	2,41
331,84	-4,10
332,05	-1,24
332,26	0,84
332,47	0,46
332,68	-0,80
332,90	0,98
333,11	-1,38
333,32	2,42
333,53	-1,95
333,74	2,36
333,95	8,59
334,17	1,13
334,38	-1,47
334,59	0,47
334,80	0,23
335,01	-1,04
335,22	-4,37
335,44	-1,38
335,65	1,84
335,86	1,95
336,07	-1,28
336,28	1,66
336,49	-3,13
336,71	2,84
336,92	2,46
337,13	4,76
337,34	1,00
337,55	-0,50
337,76	1,37
337,97	-1,22
338,19	-4,34
338,40	-2,72
338,61	0,50
338,82	1,16
339,03	0,47
339,24	2,35
339,45	0,25
339,67	-0,12
339,88	-0,90
340,09	0,74
340,30	1,20
340,51	0,61
340,72	2,36
340,93	-0,22
341,15	2,66
341,36	1,73
341,57	0,48
341,78	-2,15
341,99	2,25
342,20	1,89
342,41	-0,34
342,62	-0,42
342,84	-0,63
343,05	0,13
343,26	-0,24
343,47	-0,84
343,68	2,00
343,89	-0,29
344,10	-2,71
344,31	-3,35
344,53	0,59
344,74	4,19
344,95	-0,88
345,16	2,97
345,37	3,40
345,58	-1,99
345,79	-0,74
346,00	2,62
346,21	0,82
346,42	-3,13
346,64	-1,71
346,85	-0,70
347,06	1,13
347,27	0,27
347,48	-2,53
347,69	0,47
347,90	3,21
348,11	0,04
348,32	-1,90
348,53	-1,93
348,75	-1,79
348,96	1,31
349,17	0,62
349,38	2,83
349,59	-0,90
349,80	0,35
350,01	-2,37
350,22	0,84
350,43	-1,03
350,64	1,83
350,85	-0,76
351,06	1,04
351,28	-5,16
351,49	-0,41
351,70	1,13
351,91	-2,95
352,12	-3,00
352,33	0,07
352,54	-0,17
352,75	1,15
352,96	1,70
353,17	1,52
353,38	4,41
353,59	-2,29
353,80	0,33
354,01	0,40
354,22	-2,98
354,44	4,19
354,65	2,96
354,86	-1,98
355,07	0,58
355,28	3,90
355,49	4,80
355,70	-0,42
355,91	-2,90
356,12	-1,07
356,33	3,13
356,54	0,05
356,75	0,62
356,96	-2,80
357,17	1,27
357,38	2,50
357,59	1,40
357,80	-1,52
358,01	2,29
358,22	-5,83
358,43	4,10
358,64	1,40
358,85	-2,97
359,07	0,01
359,28	3,57
359,49	-0,60
359,70	-0,45
359,91	1,80
360,12	3,89
360,33	-0,40
360,54	2,23
360,75	2,90
360,96	3,57
361,17	-1,34
361,38	0,37
361,59	-2,07
361,80	2,85
362,01	4,05
362,22	2,39
362,43	2,45
362,64	-0,16
362,85	5,23
363,06	2,46
363,27	0,23
363,48	-0,23
363,69	5,64
363,90	-2,18
364,11	-4,33
364,32	0,56
364,53	-0,66
364,74	0,47
364,95	1,49
365,16	1,33
365,37	-0,39
365,58	3,92
365,79	-0,52
366,00	1,51
366,21	-2,97
366,42	2,49
366,63	0,15
366,84	-1,02
367,05	-1,83
367,26	3,89
367,47	2,39
367,68	0,93
367,89	2,20
368,10	1,61
368,31	-0,46
368,52	-2,01
368,73	-1,91
368,94	3,23
369,15	-0,72
369,36	-2,67
369,57	2,98
369,78	0,20
369,99	-1,61
370,20	0,16
370,40	0,51
370,61	-0,20
370,82	-0,46
371,03	-0,88
371,24	-1,52
371,45	1,97
371,66	-1,81
371,87	-3,06
372,08	-0,46
372,29	-1,80
372,50	-3,37
372,71	-0,52
372,92	1,61
373,13	4,87
373,34	-0,68
373,55	2,79
373,76	2,50
373,97	-1,69
374,18	-5,65
374,39	4,95
374,60	0,41
374,81	1,15
375,01	0,94
375,22	3,58
375,43	2,70
375,64	2,52
375,85	1,20
376,06	5,06
376,27	4,92
376,48	-1,90
376,69	2,59
376,90	-0,07
377,11	3,95
377,32	-0,31
377,53	-0,52
377,74	-2,00
377,94	-2,50
378,15	-2,22
378,36	1,55
378,57	0,51
378,78	-3,13
378,99	0,18
379,20	1,87
379,41	-0,77
379,62	-3,96
379,83	2,35
380,04	-0,26
380,25	3,92
380,45	2,22
380,66	-0,23
380,87	0,71
381,08	2,20
381,29	1,30
381,50	2,92
381,71	0,77
381,92	3,56
382,13	-1,49
382,34	-0,09
382,55	2,47
382,75	2,98
382,96	1,14
383,17	-0,00
383,38	0,93
383,59	0,49
383,80	-2,43
384,01	0,94
384,22	-1,62
384,43	2,97
384,63	0,53
384,84	3,61
385,05	-2,58
385,26	4,49
385,47	-0,01
385,68	-3,10
385,89	1,71
386,10	4,35
386,30	2,66
386,51	-4,06
386,72	1,16
386,93	-0,97
387,14	0,77
387,35	2,19
387,56	1,34
387,77	-1,51
387,97	-0,29
388,18	-0,38
388,39	-0,41
388,60	-1,96
388,81	4,35
389,02	0,72
389,23	0,25
389,43	0,86
389,64	1,47
389,85	4,63
390,06	1,29
390,27	0,23
390,48	0,43
390,69	-0,74
390,89	1,43
391,10	-0,84
391,31	2,84
391,52	-2,21
391,73	3,06
391,94	2,51
392,14	2,37
392,35	3,38
392,56	-0,98
392,77	-0,14
392,98	5,55
393,19	2,72
393,39	3,67
393,60	1,68
393,81	-2,90
394,02	4,17
394,23	2,13
394,44	0,21
394,64	-4,61
394,85	0,15
395,06	-1,44
395,27	0,89
395,48	0,93
395,69	-2,26
395,89	1,06
396,10	4,07
396,31	3,54
396,52	2,84
396,73	-1,90
396,93	1,31
397,14	-2,12
397,35	1,04
397,56	0,91
397,77	-4,25
397,97	1,94
398,18	1,93
398,39	2,83
398,60	2,14
398,81	-0,39
399,01	-1,63
399,22	2,06
399,43	1,04
399,64	0,36
399,85	2,13
400,05	2,74
400,26	-1,79
400,47	0,07
400,68	-2,99
400,89	-0,40
401,09	5,10
401,30	-1,48
401,51	2,99
401,72	0,05
401,93	0,26
402,13	-1,05
402,34	0,40
402,55	1,67
402,76	3,72
402,96	-0,91
403,17	0,36
403,38	-3,25
403,59	-0,81
403,80	-1,59
404,00	-1,10
404,21	-2,45
404,42	-3,13
404,63	0,41
404,83	1,76
405,04	0,87
405,25	-1,98
405,46	3,93
405,66	5,37
405,87	1,18
406,08	-1,04
406,29	-0,85
406,49	4,29
406,70	1,32
406,91	1,13
407,12	-1,25
407,32	1,04
407,53	4,91
407,74	-1,48
407,95	1,31
408,15	0,11
408,36	-0,79
408,57	-1,30
408,78	3,53
408,98	1,76
409,19	0,69
409,40	3,66
409,61	3,04
409,81	-0,81
410,02	-2,24
410,23	2,29
410,44	4,70
410,64	3,26
410,85	-6,74
411,06	-0,16
411,26	3,62
411,47	0,19
411,68	2,37
411,89	-1,41
412,09	1,37
412,30	-1,56
412,51	1,70
412,72	3,83
412,92	-0,59
413,13	0,82
413,34	1,07
413,54	2,85
413,75	-5,53
413,96	1,48
414,17	3,14
414,37	1,83
414,58	3,40
414,79	2,75
414,99	-1,82
415,20	4,49
415,41	7,34
415,61	3,51
415,82	2,26
416,03	-1,29
416,24	-1,38
416,44	-1,07
416,65	4,26
416,86	5,42
417,06	-0,71
417,27	3,49
417,48	3,98
417,68	2,49
417,89	0,57
418,10	3,42
418,30	3,91
418,51	1,73
418,72	1,07
418,92	4,43
419,13	3,55
419,34	3,66
419,55	1,08
419,75	0,49
419,96	5,47
420,17	-0,23
420,37	1,84
420,58	5,59
420,79	0,79
420,99	0,79
421,20	4,98
421,41	2,07
421,61	4,02
421,82	2,90
422,03	1,87
422,23	1,01
422,44	1,90
422,65	1,43
422,85	2,44
423,06	1,19
423,26	1,45
423,47	-0,37
423,68	-3,32
423,88	1,48
424,09	-6,53
424,30	5,78
424,50	4,51
424,71	3,07
424,92	4,33
425,12	-1,44
425,33	2,43
425,54	0,48
425,74	0,03
425,95	4,03
426,15	-0,66
426,36	1,75
426,57	3,48
426,77	1,80
426,98	-3,19
427,19	-0,81
427,39	1,07
427,60	2,53
427,81	0,68
428,01	2,03
428,22	-0,86
428,42	1,45
428,63	0,90
428,84	-6,30
429,04	1,46
429,25	0,03
429,45	1,38
429,66	-2,37
429,87	3,85
430,07	-0,71
430,28	-0,72
430,49	-0,32
430,69	0,66
430,90	6,19
431,10	0,74
431,31	-3,41
431,52	1,00
431,72	1,21
431,93	4,08
432,13	2,49
432,34	0,23
432,55	-0,26
432,75	0,43
432,96	3,76
433,16	-0,93
433,37	0,02
433,58	-0,50
433,78	-0,16
433,99	2,42
434,19	2,60
434,40	-3,17
434,60	2,88
434,81	1,16
435,02	1,21
435,22	-1,63
435,43	2,51
435,63	-2,75
435,84	-1,38
436,05	1,69
436,25	3,62
436,46	0,04
436,66	5,55
436,87	2,43
437,07	0,09
437,28	-3,31
437,48	1,07
437,69	1,25
437,90	0,99
438,10	0,93
438,31	1,95
438,51	0,56
438,72	0,43
438,92	0,47
439,13	1,14
439,34	1,87
439,54	5,42
439,75	4,02
439,95	-2,88
440,16	-1,11
440,36	-1,76
440,57	-0,55
440,77	-3,22
440,98	2,72
441,18	-3,67
441,39	3,13
441,60	1,97
441,80	0,03
442,01	-0,39
442,21	0,77
442,42	-3,86
442,62	-1,13
442,83	-2,22
443,03	0,84
443,24	1,30
443,44	1,72
443,65	0,04
443,85	-2,05
444,06	3,80
444,26	8,11
444,47	2,83
444,67	-0,12
444,88	-1,04
445,09	-3,02
445,29	2,42
445,50	2,11
445,70	1,86
445,91	3,26
446,11	-2,47
446,32	1,55
446,52	2,26
446,73	-0,87
446,93	2,68
447,14	1,95
447,34	3,60
447,55	0,23
447,75	1,73
447,96	2,98
448,16	-0,68
448,37	0,41
448,57	-0,25
448,78	-1,27
448,98	0,89
449,19	-1,17
449,39	2,88
449,60	-2,28
449,80	4,44
450,01	0,93
450,21	-0,79
450,42	-2,81
450,62	5,28
450,83	1,12
451,03	3,42
451,23	-0,75
451,44	-5,53
451,64	2,95
451,85	0,90
452,05	-2,99
452,26	4,73
452,46	-1,50
452,67	-0,66
452,87	1,06
453,08	-2,67
453,28	0,34
453,49	0,90
453,69	-2,60
453,90	-0,19
454,10	2,29
454,31	-0,86
454,51	-1,03
454,71	-2,19
454,92	2,96
455,12	-0,28
455,33	2,87
455,53	1,67
455,74	-1,98
455,94	2,20
456,15	2,67
456,35	-2,24
456,55	1,22
456,76	-3,43
456,96	0,90
457,17	-2,84
457,37	5,57
457,58	0,18
457,78	1,91
457,99	3,28
458,19	-1,70
458,39	-1,60
458,60	1,57
458,80	-0,50
459,01	1,16
459,21	1,37
459,42	0,07
459,62	-1,57
459,82	0,19
460,03	1,63
460,23	3,02
460,44	-0,01
460,64	-2,30
460,85	-1,36
461,05	7,49
461,25	0,66
461,46	-0,34
461,66	0,61
461,87	2,02
462,07	0,93
462,27	3,05
462,48	-0,28
462,68	0,47
462,89	1,44
463,09	1,07
463,29	4,08
463,50	0,89
463,70	3,94
463,91	0,04
464,11	5,83
464,31	-1,98
464,52	3,63
464,72	-0,11
464,93	-0,14
465,13	4,90
465,33	1,58
465,54	5,32
465,74	0,45
465,95	-0,48
466,15	2,31
466,35	1,53
466,56	-1,13
466,76	0,77
466,96	2,32
467,17	0,02
467,37	1,78
467,58	0,82
467,78	0,79
467,98	3,93
468,19	1,13
468,39	-2,67
468,59	1,29
468,80	-3,48
469,00	1,44
469,21	5,68
469,41	-3,87
469,61	2,01
469,82	-0,84
470,02	1,60
470,22	-2,46
470,43	1,38
470,63	-0,68
470,83	-2,20
471,04	0,10
471,24	3,02
471,45	-1,52
471,65	0,73
471,85	2,28
472,06	1,29
472,26	3,45
472,46	-0,33
472,67	1,53
472,87	2,51
473,07	-1,27
473,28	4,46
473,48	1,47
473,68	0,00
473,89	2,90
474,09	0,04
474,29	4,28
474,50	0,25
474,70	5,75
474,90	0,23
475,11	1,85
475,31	3,83
475,51	-1,60
475,72	-0,39
475,92	3,68
476,12	3,93
476,33	-1,32
476,53	0,27
476,73	-1,54
476,93	-0,33
477,14	-0,33
477,34	2,55
477,54	-0,28
477,75	-1,77
477,95	3,18
478,15	-0,09
478,36	5,23
478,56	-0,89
478,76	-0,48
478,97	3,10
479,17	0,54
479,37	-3,24
479,57	-0,60
479,78	0,87
479,98	1,70
480,18	3,59
480,39	1,44
480,59	2,31
480,79	3,17
480,99	0,67
481,20	1,67
481,40	1,40
481,60	2,60
481,81	1,92
482,01	4,20
482,21	3,20
482,41	-0,59
482,62	-0,80
482,82	0,53
483,02	-0,64
483,23	1,88
483,43	3,77
483,63	-0,97
483,83	4,73
484,04	0,25
484,24	2,13
484,44	1,13
484,64	0,01
484,85	-2,65
485,05	5,21
485,25	0,33
485,45	1,34
485,66	1,60
485,86	6,12
486,06	2,97
486,26	4,27
486,47	3,89
486,67	-1,59
486,87	0,55
487,07	0,04
487,28	-1,61
487,48	0,01
487,68	0,92
487,88	-0,44
488,09	3,76
488,29	0,50
488,49	1,20
488,69	1,53
488,90	2,02
489,10	4,18
489,30	4,82
489,50	1,46
489,71	3,02
489,91	-1,99
490,11	1,87
490,31	0,31
490,52	5,44
490,72	1,61
490,92	-1,50
491,12	2,54
491,32	2,33
491,53	-1,86
491,73	-1,62
491,93	1,95
492,13	-0,73
492,33	3,37
492,54	3,91
492,74	1,95
492,94	-0,12
493,14	2,54
493,35	-2,02
493,55	-1,15
493,75	0,84
493,95	3,27
494,15	0,77
494,36	1,78
494,56	0,45
494,76	-2,02
494,96	-3,96
495,16	-0,65
495,37	0,24
495,57	-3,70
495,77	1,57
495,97	0,15
496,17	2,22
496,37	1,85
496,58	4,85
496,78	10,85
496,98	23,24
497,18	30,37
497,38	32,06
497,59	29,32
497,79	26,34
497,99	21,59
498,19	9,97
498,39	11,46
498,59	5,14
498,80	7,09
499,00	1,27
499,20	3,81
499,40	2,40
499,60	-0,58
499,80	0,45
500,01	1,46
500,21	0,29
500,41	2,90
500,61	-2,01
500,81	2,42
501,01	-0,51
501,22	-0,22
501,42	-1,30
501,62	-1,09
501,82	3,45
502,02	0,23
502,22	-2,57
502,42	-1,85
502,63	-0,57
502,83	0,32
503,03	0,99
503,23	-0,57
503,43	1,58
503,63	0,41
503,83	-2,78
504,04	2,07
504,24	-1,94
504,44	5,24
504,64	1,58
504,84	1,61
505,04	1,82
505,24	-2,26
505,44	7,02
505,65	1,30
505,85	2,90
506,05	0,24
506,25	-0,16
506,45	1,16
506,65	6,20
506,85	2,15
507,05	2,88
507,26	4,83
507,46	3,10
507,66	0,00
507,86	0,01
508,06	1,78
508,26	1,80
508,46	1,74
508,66	-1,29
508,86	-1,35
509,06	4,10
509,27	0,82
509,47	-2,74
509,67	-0,79
509,87	2,00
510,07	4,37
510,27	0,34
510,47	-1,14
510,67	2,14
510,87	-2,58
511,07	-0,62
511,28	6,21
511,48	1,50
511,68	-0,96
511,88	0,88
512,08	3,03
512,28	3,00
512,48	0,82
512,68	0,10
512,88	0,81
513,08	7,22
513,28	4,09
513,48	0,75
513,68	2,95
513,89	4,46
514,09	3,08
514,29	4,78
514,49	3,49
514,69	5,34
514,89	7,22
515,09	5,87
515,29	2,41
515,49	2,36
515,69	3,25
515,89	4,46
516,09	2,42
516,29	1,78
516,49	4,15
516,69	-0,21
516,89	-0,69
517,09	-2,28
517,29	3,23
517,50	-0,02
517,70	-1,11
517,90	0,81
518,10	6,23
518,30	-3,18
518,50	2,65
518,70	-3,22
518,90	3,74
519,10	-0,03
519,30	0,93
519,50	-2,20
519,70	2,61
519,90	-0,11
520,10	0,06
520,30	1,42
520,50	6,83
520,70	0,29
520,90	-2,98
521,10	0,36
521,30	1,68
521,50	1,67
521,70	0,76
521,90	3,56
522,10	0,67
522,30	4,33
522,50	3,44
522,70	2,67
522,90	2,82
523,10	-0,18
523,30	1,72
523,50	0,76
523,70	7,26
523,90	-0,59
524,10	-0,40
524,30	-0,30
524,50	2,56
524,70	4,24
524,90	1,81
525,10	4,53
525,30	-1,13
525,50	5,84
525,70	0,59
525,90	4,80
526,10	3,41
526,30	1,90
526,50	0,88
526,70	1,97
526,90	-0,37
527,10	2,80
527,30	-0,79
527,50	2,94
527,70	1,10
527,90	4,03
528,10	-0,08
528,30	0,24
528,50	-2,05
528,70	5,24
528,90	0,56
529,10	5,51
529,30	-0,65
529,50	2,55
529,70	1,29
529,90	5,35
530,10	5,01
530,29	3,47
530,49	0,19
530,69	2,60
530,89	4,62
531,09	2,85
531,29	4,46
531,49	4,54
531,69	4,05
531,89	0,31
532,09	2,49
532,29	1,25
532,49	5,12
532,69	-1,84
532,89	-3,98
533,09	2,62
533,29	0,66
533,49	1,41
533,68	0,50
533,88	-2,03
534,08	1,34
534,28	5,01
534,48	-0,66
534,68	0,58
534,88	5,60
535,08	1,81
535,28	1,26
535,48	1,80
535,68	2,97
535,88	1,05
536,08	5,37
536,27	-2,27
536,47	2,59
536,67	1,78
536,87	-0,19
537,07	0,40
537,27	-0,11
537,47	2,37
537,67	6,35
537,87	1,47
538,07	3,92
538,27	-0,40
538,46	-0,01
538,66	1,48
538,86	0,77
539,06	6,61
539,26	1,48
539,46	1,68
539,66	1,97
539,86	-0,39
540,06	2,50
540,25	1,52
540,45	0,44
540,65	3,82
540,85	1,80
541,05	-3,02
541,25	-1,02
541,45	-1,46
541,65	1,97
541,85	-2,50
542,04	3,47
542,24	2,85
542,44	4,24
542,64	1,78
542,84	7,83
543,04	-0,60
543,24	2,38
543,43	6,68
543,63	1,03
543,83	1,27
544,03	-1,60
544,23	-2,08
544,43	0,93
544,63	-0,45
544,82	5,06
545,02	3,44
545,22	0,71
545,42	2,86
545,62	4,35
545,82	2,45
546,02	2,30
546,21	1,58
546,41	3,22
546,61	3,62
546,81	5,76
547,01	5,13
547,21	0,27
547,40	4,39
547,60	-0,42
547,80	1,38
548,00	4,55
548,20	4,17
548,40	4,24
548,59	-0,68
548,79	5,82
548,99	-0,39
549,19	2,27
549,39	4,21
549,59	3,38
549,78	2,90
549,98	0,42
550,18	-0,46
550,38	0,22
550,58	0,74
550,77	1,26
550,97	3,83
551,17	0,89
551,37	3,52
551,57	-0,90
551,76	2,15
551,96	1,45
552,16	3,14
552,36	0,38
552,56	1,21
552,75	-2,24
552,95	7,03
553,15	4,66
553,35	2,50
553,55	3,68
553,74	-0,01
553,94	-1,59
554,14	-0,58
554,34	0,09
554,54	3,10
554,73	2,76
554,93	3,34
555,13	1,94
555,33	2,82
555,53	1,71
555,72	4,12
555,92	2,14
556,12	5,22
556,32	6,77
556,51	-0,32
556,71	0,54
556,91	4,11
557,11	2,48
557,30	4,46
557,50	2,63
557,70	2,38
557,90	0,86
558,10	4,55
558,29	3,81
558,49	2,11
558,69	2,65
558,89	1,70
559,08	0,62
559,28	4,35
559,48	0,73
559,68	6,21
559,87	6,09
560,07	5,05
560,27	5,56
560,47	2,18
560,66	8,85
560,86	4,33
561,06	1,18
561,25	2,67
561,45	2,11
561,65	2,62
561,85	3,19
562,04	0,25
562,24	4,55
562,44	4,39
562,64	5,05
562,83	3,22
563,03	4,67
563,23	11,53
563,42	3,69
563,62	5,24
563,82	1,35
564,02	3,52
564,21	5,76
564,41	5,35
564,61	6,48
564,80	5,21
565,00	3,77
565,20	0,53
565,40	8,70
565,59	10,48
565,79	6,24
565,99	11,05
566,18	4,40
566,38	9,48
566,58	18,46
566,78	72,13
566,97	325,33
567,17	1256,16
567,37	2777,13
567,56	4476,02
567,76	5585,39
567,96	6362,50
568,15	6201,28
568,35	5587,42
568,55	4417,83
568,74	3318,37
568,94	2230,08
569,14	1540,60
569,33	886,82
569,53	515,49
569,73	238,38
569,92	128,68
570,12	68,90
570,32	46,64
570,52	31,84
570,71	25,08
570,91	20,91
571,11	24,44
571,30	16,83
571,50	19,96
571,70	19,40
571,89	22,23
572,09	15,79
572,28	19,13
572,48	16,71
572,68	21,42
572,87	16,64
573,07	15,08
573,27	16,33
573,46	14,04
573,66	17,53
573,86	19,11
574,05	12,54
574,25	13,20
574,45	14,90
574,64	16,47
574,84	19,09
575,04	16,95
575,23	19,28
575,43	23,71
575,62	16,79
575,82	19,84
576,02	24,43
576,21	19,01
576,41	18,91
576,61	18,51
576,80	16,78
577,00	16,85
577,19	21,32
577,39	24,49
577,59	22,04
577,78	21,40
577,98	24,64
578,18	27,33
578,37	21,85
578,57	22,14
578,76	25,82
578,96	26,21
579,16	29,25
579,35	34,28
579,55	28,53
579,74	32,11
579,94	30,76
580,14	32,67
580,33	32,64
580,53	40,39
580,72	42,54
580,92	41,64
581,12	44,13
581,31	50,93
581,51	51,71
581,70	59,01
581,90	62,36
582,10	70,96
582,29	74,21
582,49	85,20
582,68	93,60
582,88	111,30
583,07	115,01
583,27	173,32
583,47	225,59
583,66	368,02
583,86	534,47
584,05	887,18
584,25	1119,70
584,44	1469,70
584,64	1575,77
584,84	1814,11
585,03	1705,77
585,23	1739,31
585,42	1642,76
585,62	1696,13
585,81	1734,91
586,01	2009,19
586,20	2203,86
586,40	2736,33
586,60	3321,67
586,79	4784,05
586,99	14718,64
587,18	48812,96
587,38	60460,64
587,57	63989,95
587,77	64178,02
587,96	64182,62
588,16	64175,90
588,35	64182,56
588,55	64176,44
588,75	64183,73
588,94	64176,19
589,14	64181,86
589,33	64177,82
589,53	64183,14
589,72	64177,40
589,92	64184,66
590,11	64178,67
590,31	64183,82
590,50	64177,20
590,70	64180,03
590,89	64178,40
591,09	64184,14
591,28	64175,15
591,48	64184,12
591,67	64178,46
591,87	64185,16
592,06	64178,16
592,26	64185,47
592,45	64178,56
592,65	64125,47
592,84	63700,21
593,04	63671,68
593,23	63630,74
593,43	63470,12
593,62	63128,59
593,82	62951,23
594,01	62889,23
594,21	62586,90
594,40	61798,54
594,60	61624,24
594,79	61162,19
594,99	60900,92
595,18	60672,88
595,38	60305,93
595,57	59975,87
595,77	59951,00
595,96	59916,14
596,16	59750,48
596,35	59466,09
596,55	59099,69
596,74	58734,89
596,94	58669,12
597,13	58596,43
597,33	58420,83
597,52	58122,21
597,72	57920,33
597,91	57766,15
598,11	57739,41
598,30	57518,44
598,50	57391,29
598,69	57061,66
598,88	57003,72
599,08	56698,43
599,27	56651,44
599,47	56420,88
599,66	56195,93
599,86	55512,94
600,05	55460,95
600,25	55335,78
600,44	55233,75
600,64	54508,64
600,83	54398,82
601,02	53898,50
601,22	53822,17
601,41	52996,84
601,61	52972,54
601,80	51817,30
602,00	51822,16
602,19	51410,79
602,38	51428,47
602,58	50669,42
602,77	50750,93
602,97	49835,24
603,16	49955,88
603,36	49641,85
603,55	49680,30
603,74	49001,08
603,94	49097,72
604,13	48225,64
604,33	48370,71
604,52	47566,63
604,72	47696,75
604,91	46712,12
605,10	46970,50
605,30	46181,38
605,49	46341,58
605,69	45409,71
605,88	45762,65
606,07	44797,79
606,27	45017,46
606,46	44471,86
606,66	44550,54
606,85	43312,77
607,04	43561,77
607,24	43102,06
607,43	43180,14
607,63	42142,95
607,82	42173,30
608,01	41579,95
608,21	41349,60
608,40	40789,09
608,60	40584,45
608,79	40008,11
608,98	39912,83
609,18	39209,77
609,37	38803,96
609,57	38388,58
609,76	37713,14
609,95	37250,22
610,15	36610,71
610,34	35873,73
610,53	34954,37
610,73	34135,04
610,92	33310,69
611,11	31636,93
611,31	30825,05
611,50	25463,73
611,70	25381,02
611,89	9819,93
612,08	11640,96
612,28	658,39
612,47	5687,67
612,66	44,71
612,86	40,62
613,05	36,63
613,24	33,64
613,44	32,55
613,63	31,60
613,82	33,28
614,02	35,57
614,21	37,58
614,41	48,42
614,60	79,22
614,79	145,70
614,99	200,67
615,18	297,05
615,37	287,88
615,57	297,84
615,76	200,15
615,95	143,20
616,15	88,14
616,34	61,55
616,53	52,22
616,73	44,26
616,92	33,00
617,11	29,20
617,30	20,90
617,50	24,32
617,69	19,78
617,88	19,27
618,08	17,61
618,27	11,74
618,46	20,11
618,66	12,81
618,85	16,56
619,04	15,59
619,24	12,80
619,43	14,98
619,62	15,46
619,82	10,98
620,01	12,27
620,20	15,29
620,39	10,92
620,59	14,03
620,78	14,78
620,97	18,83
621,17	14,41
621,36	13,84
621,55	10,84
621,74	12,95
621,94	12,24
622,13	12,12
622,32	11,64
622,52	10,01
622,71	11,70
622,90	8,21
623,09	11,26
623,29	10,81
623,48	7,80
623,67	12,31
623,86	8,95
624,06	8,05
624,25	11,28
624,44	8,00
624,64	9,61
624,83	14,50
625,02	5,26
625,21	9,49
625,41	9,39
625,60	12,00
625,79	10,35
625,98	8,96
626,18	11,88
626,37	8,44
626,56	10,21
626,75	13,37
626,95	6,06
627,14	9,15
627,33	9,38
627,52	10,62
627,72	9,24
627,91	5,41
628,10	8,59
628,29	6,45
628,49	12,41
628,68	8,19
628,87	9,33
629,06	10,60
629,25	7,97
629,45	6,56
629,64	8,50
629,83	8,72
630,02	10,22
630,22	7,59
630,41	9,33
630,60	5,43
630,79	4,83
630,98	8,22
631,18	8,43
631,37	7,59
631,56	6,54
631,75	8,52
631,94	12,48
632,14	10,03
632,33	8,18
632,52	10,31
632,71	7,99
632,90	8,70
633,10	9,54
633,29	4,85
633,48	5,92
633,67	7,43
633,86	6,12
634,06	10,71
634,25	6,99
634,44	5,49
634,63	7,44
634,82	6,14
635,02	7,30
635,21	9,54
635,40	3,72
635,59	6,81
635,78	6,42
635,97	8,63
636,17	9,15
636,36	9,56
636,55	2,56
636,74	7,05
636,93	5,70
637,12	6,55
637,32	2,24
637,51	11,82
637,70	4,80
637,89	7,96
638,08	6,54
638,27	10,92
638,47	9,34
638,66	10,54
638,85	5,07
639,04	5,95
639,23	1,68
639,42	2,85
639,62	8,19
639,81	5,99
640,00	9,81
640,19	3,93
640,38	9,15
640,57	6,01
640,76	9,11
640,95	10,40
641,15	4,90
641,34	9,61
641,53	8,42
641,72	7,31
641,91	4,99
642,10	3,26
642,29	5,22
642,49	4,98
642,68	3,96
642,87	5,42
643,06	8,93
643,25	1,33
643,44	4,16
643,63	4,83
643,82	7,62
644,01	3,95
644,21	9,42
644,40	4,24
644,59	6,50
644,78	7,38
644,97	6,30
645,16	7,10
645,35	6,06
645,54	0,71
645,73	4,45
645,92	4,15
646,12	5,12
646,31	7,00
646,50	3,19
646,69	0,30
646,88	2,81
647,07	4,97
647,26	9,25
647,45	7,87
647,64	2,73
647,83	9,83
648,02	8,05
648,22	7,95
648,41	6,54
648,60	6,88
648,79	1,23
648,98	5,28
649,17	10,47
649,36	7,00
649,55	4,24
649,74	8,11
649,93	6,09
650,12	5,69
650,31	4,83
650,50	10,68
650,69	3,73
650,88	6,26
651,08	5,90
651,27	3,75
651,46	11,89
651,65	3,34
651,84	2,15
652,03	6,14
652,22	4,21
652,41	6,67
652,60	6,84
652,79	8,33
652,98	5,42
653,17	6,05
653,36	3,52
653,55	3,35
653,74	4,52
653,93	0,78
654,12	4,50
654,31	6,18
654,50	6,05
654,69	6,48
654,88	5,91
655,07	4,25
655,26	0,49
655,45	6,39
655,64	7,48
655,83	7,35
656,02	6,33
656,21	7,26
656,40	3,05
656,59	6,00
656,78	5,23
656,97	1,62
657,17	6,16
657,36	8,29
657,55	1,87
657,74	7,83
657,93	-0,30
658,12	-0,96
658,31	2,34
658,50	5,94
658,69	7,07
658,87	3,51
659,06	6,09
659,25	2,27
659,44	0,66
659,63	4,44
659,82	8,85
660,01	4,54
660,20	3,10
660,39	0,25
660,58	7,48
660,77	2,92
660,96	6,92
661,15	3,56
661,34	1,26
661,53	9,54
661,72	6,39
661,91	2,12
662,10	4,59
662,29	1,24
662,48	2,12
662,67	4,63
662,86	-2,13
663,05	5,98
663,24	2,58
663,43	0,34
663,62	4,53
663,81	5,85
664,00	3,94
664,19	2,52
664,38	4,83
664,57	3,00
664,76	4,57
664,94	6,87
665,13	1,82
665,32	5,27
665,51	1,89
665,70	-0,24
665,89	2,98
666,08	5,37
666,27	4,03
666,46	4,51
666,65	5,42
666,84	7,68
667,03	2,72
667,22	5,48
667,41	4,28
667,60	4,76
667,78	1,83
667,97	4,96
668,16	5,92
668,35	3,15
668,54	4,99
668,73	2,74
668,92	2,63
669,11	3,42
669,30	6,80
669,49	0,62
669,68	1,05
669,86	5,55
670,05	4,73
670,24	2,22
670,43	-0,09
670,62	-0,77
670,81	7,56
671,00	5,96
671,19	1,79
671,38	2,63
671,57	2,20
671,75	1,07
671,94	5,23
672,13	2,33
672,32	7,14
672,51	0,73
672,70	6,04
672,89	3,59
673,08	4,74
673,26	3,22
673,45	4,00
673,64	6,74
673,83	3,01
674,02	2,51
674,21	1,50
674,40	4,02
674,59	-0,36
674,77	7,19
674,96	5,78
675,15	2,00
675,34	10,06
675,53	3,49
675,72	0,36
675,91	4,58
676,09	3,09
676,28	1,88
676,47	5,23
676,66	6,43
676,85	3,27
677,04	6,26
677,22	0,40
677,41	1,81
677,60	5,71
677,79	0,38
677,98	4,67
678,17	1,99
678,36	7,17
678,54	1,34
678,73	-0,84
678,92	4,44
679,11	3,31
679,30	5,84
679,48	1,62
679,67	2,93
679,86	0,33
680,05	0,15
680,24	4,68
680,43	1,19
680,61	3,26
680,80	3,93
680,99	5,47
681,18	4,71
681,37	1,72
681,55	6,25
681,74	3,83
681,93	5,82
682,12	4,32
682,31	0,98
682,49	0,75
682,68	3,16
682,87	1,37
683,06	0,92
683,25	3,02
683,43	2,46
683,62	2,11
683,81	3,56
684,00	2,42
684,19	-0,72
684,37	-1,29
684,56	2,51
684,75	0,11
684,94	0,30
685,12	4,64
685,31	4,19
685,50	5,16
685,69	1,01
685,88	0,28
686,06	4,68
686,25	2,04
686,44	1,91
686,63	4,10
686,81	4,29
687,00	3,86
687,19	7,44
687,38	5,44
687,56	2,42
687,75	6,66
687,94	1,61
688,13	2,94
688,31	-0,20
688,50	1,58
688,69	2,99
688,88	-0,16
689,06	1,56
689,25	0,11
689,44	2,74
689,63	0,03
689,81	8,57
690,00	1,91
690,19	8,81
690,38	2,88
690,56	3,89
690,75	2,71
690,94	3,58
691,13	-1,33
691,31	4,57
691,50	2,97
691,69	4,42
691,87	4,43
692,06	0,75
692,25	2,66
692,44	4,92
692,62	0,20
692,81	1,28
693,00	2,99
693,18	1,07
693,37	1,88
693,56	6,43
693,75	4,64
693,93	4,22
694,12	3,97
694,31	4,51
694,49	1,10
694,68	5,61
694,87	8,02
695,05	15,98
695,24	50,72
695,43	248,65
695,62	547,91
695,80	889,12
695,99	1005,43
696,18	989,18
696,36	750,04
696,55	496,54
696,74	302,32
696,92	186,52
697,11	114,37
697,30	74,03
697,48	55,03
697,67	34,76
697,86	20,91
698,04	10,54
698,23	16,97
698,42	5,59
698,60	2,76
698,79	6,52
698,98	0,77
699,16	5,32
699,35	5,60
699,54	6,02
699,72	-1,62
699,91	-2,93
700,10	2,56
700,28	0,94
700,47	3,25
700,66	1,99
700,84	5,17
701,03	5,48
701,21	2,80
701,40	1,97
701,59	2,22
701,77	5,30
701,96	2,59
702,15	4,19
702,33	8,52
702,52	2,39
702,71	2,39
702,89	3,11
703,08	1,98
703,26	5,73
703,45	1,80
703,64	5,63
703,82	-0,04
704,01	4,08
704,20	2,42
704,38	1,59
704,57	-0,81
704,75	0,68
704,94	4,29
705,13	3,32
705,31	13,27
705,50	30,63
705,68	91,20
705,87	202,87
706,06	302,68
706,24	365,34
706,43	290,41
706,61	208,12
706,80	119,63
706,99	76,45
707,17	42,36
707,36	35,96
707,54	22,92
707,73	19,01
707,92	14,27
708,10	7,08
708,29	5,22
708,47	8,06
708,66	3,12
708,84	0,26
709,03	3,49
709,22	0,10
709,40	1,99
709,59	4,73
709,77	2,77
709,96	2,43
710,14	3,70
710,33	0,09
710,52	4,64
710,70	5,46
710,89	-1,61
711,07	4,49
711,26	2,04
711,44	8,70
711,63	-0,09
711,81	2,81
712,00	0,40
712,19	3,19
712,37	4,52
712,56	1,29
712,74	-1,98
712,93	2,79
713,11	2,29
713,30	5,23
713,48	2,47
713,67	5,71
713,85	2,62
714,04	7,47
714,22	3,78
714,41	5,44
714,59	7,28
714,78	4,62
714,97	7,30
715,15	4,16
715,34	2,90
715,52	2,67
715,71	5,13
715,89	7,02
716,08	3,67
716,26	-0,37
716,45	2,90
716,63	1,55
716,82	1,33
717,00	5,62
717,19	-0,06
717,37	3,38
717,56	5,01
717,74	4,01
717,93	5,42
718,11	0,15
718,30	-0,67
718,48	3,33
718,67	5,69
718,85	2,79
719,04	1,88
719,22	5,14
719,41	2,45
719,59	0,29
719,78	4,87
719,96	-0,07
720,15	4,25
720,33	6,07
720,52	7,41
720,70	5,94
720,88	3,19
721,07	2,59
721,25	6,35
721,44	6,26
721,62	3,84
721,81	-0,50
721,99	5,67
722,18	4,24
722,36	6,95
722,55	4,30
722,73	4,44
722,92	-0,32
723,10	2,04
723,28	0,53
723,47	3,08
723,65	-0,52
723,84	2,25
724,02	-4,34
724,21	3,38
724,39	-0,53
724,58	-0,02
724,76	-0,56
724,94	0,54
725,13	5,02
725,31	2,87
725,50	1,39
725,68	2,24
725,87	1,49
726,05	6,49
726,23	7,52
726,42	12,56
726,60	19,32
726,79	23,33
726,97	22,66
727,16	14,25
727,34	12,27
727,52	11,96
727,71	7,10
727,89	8,18
728,08	4,88
728,26	9,42
728,44	4,63
728,63	6,94
728,81	6,35
729,00	4,57
729,18	3,06
729,36	-0,51
729,55	1,88
729,73	5,33
729,92	0,02
730,10	1,61
730,28	0,79
730,47	4,05
730,65	0,06
730,84	5,72
731,02	2,37
731,20	1,43
731,39	3,16
731,57	2,90
731,75	1,31
731,94	4,25
732,12	3,54
732,31	-1,99
732,49	1,84
732,67	1,51
732,86	-0,01
733,04	3,94
733,22	5,20
733,41	0,93
733,59	-0,25
733,78	8,65
733,96	0,11
734,14	2,88
734,33	-0,28
734,51	0,66
734,69	3,62
734,88	0,51
735,06	2,66
735,24	2,14
735,43	0,63
735,61	0,14
735,79	6,24
735,98	2,74
736,16	0,11
736,34	2,97
736,53	6,37
736,71	1,40
736,89	11,80
737,08	41,56
737,26	183,01
737,44	481,57
737,63	833,29
737,81	1062,59
737,99	1151,13
738,18	977,09
738,36	753,49
738,54	466,60
738,73	312,89
738,91	176,26
739,09	102,89
739,28	59,67
739,46	29,72
739,64	21,52
739,82	19,19
740,01	5,05
740,19	7,48
740,37	5,52
740,56	3,38
740,74	-0,45
740,92	1,22
741,11	2,16
741,29	5,76
741,47	3,11
741,65	1,08
741,84	0,90
742,02	4,44
742,20	5,27
742,39	2,40
742,57	4,02
742,75	3,62
742,93	3,36
743,12	3,38
743,30	3,45
743,48	4,47
743,67	4,24
743,85	1,58
744,03	1,31
744,21	0,71
744,40	2,99
744,58	2,34
744,76	1,46
744,94	2,14
745,13	0,93
745,31	3,94
745,49	-0,22
745,67	0,86
745,86	-1,71
746,04	-0,26
746,22	2,84
746,40	-1,33
746,59	-1,93
746,77	3,67
746,95	3,81
747,13	2,61
747,32	4,03
747,50	2,39
747,68	0,64
747,86	0,07
748,05	6,65
748,23	3,15
748,41	2,79
748,59	1,94
748,77	5,27
748,96	8,47
749,14	28,09
749,32	122,89
749,50	301,70
749,69	537,76
749,87	719,17
750,05	915,48
750,23	1037,96
750,41	1191,88
750,60	1303,10
750,78	1383,83
750,96	1342,26
751,14	1193,28
751,32	912,47
751,51	626,65
751,69	375,65
751,87	210,85
752,05	115,13
752,23	58,08
752,42	32,71
752,60	18,21
752,78	17,84
752,96	11,34
753,14	9,63
753,33	5,10
753,51	7,72
753,69	1,56
753,87	7,76
754,05	2,07
754,23	4,19
754,42	6,49
754,60	6,65
754,78	1,16
754,96	3,77
755,14	1,06
755,32	0,38
755,51	3,14
755,69	-1,98
755,87	-0,35
756,05	-5,98
756,23	-2,64
756,41	6,53
756,60	-1,43
756,78	0,10
756,96	0,99
757,14	0,29
757,32	1,29
757,50	3,06
757,68	-0,42
757,87	1,91
758,05	-1,65
758,23	4,49
758,41	2,22
758,59	-0,14
758,77	1,50
758,95	0,09
759,14	-3,57
759,32	0,67
759,50	7,17
759,68	2,53
759,86	1,49
760,04	1,87
760,22	-1,51
760,40	-2,32
760,59	5,64
760,77	2,29
760,95	-1,43
761,13	2,97
761,31	2,98
761,49	0,52
761,67	2,58
761,85	8,07
762,03	120,90
762,22	1146,67
762,40	3270,83
762,58	5671,66
762,76	7813,77
762,94	9272,09
763,12	9703,30
763,30	8951,26
763,48	7353,46
763,66	5454,79
763,84	3942,05
764,02	2549,34
764,21	1684,68
764,39	1082,42
764,57	743,52
764,75	483,30
764,93	341,58
765,11	244,12
765,29	192,81
765,47	135,85
765,65	97,62
765,83	72,18
766,01	51,20
766,19	34,77
766,37	29,08
766,56	20,39
766,74	19,84
766,92	11,24
767,10	12,98
767,28	9,63
767,46	8,82
767,64	5,05
767,82	7,61
768,00	9,17
768,18	4,53
768,36	5,43
768,54	6,97
768,72	6,09
768,90	9,40
769,08	9,38
769,26	12,61
769,44	9,78
769,62	7,84
769,80	10,72
769,98	5,71
770,16	5,37
770,34	12,07
770,52	8,39
770,71	6,61
770,89	12,82
771,07	53,40
771,25	295,93
771,43	973,84
771,61	1681,30
771,79	2287,29
771,97	2534,11
772,15	2382,32
772,33	1786,72
772,51	1158,32
772,69	612,06
772,87	297,76
773,05	126,68
773,23	76,13
773,41	48,14
773,59	33,32
773,77	20,42
773,95	23,07
774,13	14,30
774,31	10,82
774,49	8,25
774,67	10,92
774,85	8,22
775,03	7,03
775,21	3,65
775,39	5,04
775,57	4,20
775,75	3,81
775,93	6,03
776,10	5,06
776,28	-1,20
776,46	1,61
776,64	7,56
776,82	5,48
777,00	1,20
777,18	4,55
777,36	2,60
777,54	-1,56
777,72	4,34
777,90	3,82
778,08	2,70
778,26	2,88
778,44	3,12
778,62	0,89
778,80	2,88
778,98	1,28
779,16	1,31
779,34	1,62
779,52	2,74
779,70	1,06
779,88	1,30
780,05	2,96
780,23	2,30
780,41	-3,09
780,59	0,83
780,77	1,48
780,95	-0,75
781,13	3,11
781,31	3,03
781,49	0,17
781,67	-1,12
781,85	-3,40
782,03	5,12
782,21	2,38
782,39	-2,05
782,56	0,33
782,74	0,22
782,92	4,46
783,10	-5,48
783,28	3,47
783,46	-0,91
783,64	2,29
783,82	2,63
784,00	4,05
784,18	-1,21
784,35	-0,37
784,53	2,92
784,71	3,22
784,89	4,36
785,07	1,22
785,25	1,81
785,43	3,15
785,61	2,72
785,79	0,34
785,96	6,61
786,14	0,02
786,32	0,24
786,50	-2,01
786,68	1,81
786,86	-4,08
787,04	-0,01
787,22	4,22
787,39	3,13
787,57	3,13
787,75	2,42
787,93	1,30
788,11	0,01
788,29	3,29
788,47	7,35
788,65	3,30
788,82	1,95
789,00	5,47
789,18	-2,40
789,36	-2,29
789,54	1,77
789,72	0,70
789,89	-0,49
790,07	3,39
790,25	6,52
790,43	1,39
790,61	-0,45
790,79	-2,05
790,96	3,93
791,14	4,12
791,32	-2,28
791,50	0,67
791,68	1,56
791,86	3,31
792,03	1,56
792,21	1,65
792,39	3,81
792,57	-3,93
792,75	2,52
792,93	-0,68
793,10	0,54
793,28	5,35
793,46	9,65
793,64	39,73
793,82	149,15
793,99	390,76
794,17	538,08
794,35	666,80
794,53	550,17
794,71	387,89
794,88	173,37
795,06	82,07
795,24	40,07
795,42	23,94
795,60	19,67
795,77	13,36
795,95	12,96
796,13	10,91
796,31	8,15
796,49	5,91
796,66	4,33
796,84	7,34
797,02	1,18
797,20	2,63
797,37	2,07
797,55	4,83
797,73	-0,72
797,91	1,04
798,08	-1,00
798,26	5,55
798,44	3,11
798,62	-1,57
798,80	3,94
798,97	8,79
799,15	1,22
799,33	8,93
799,51	19,82
799,68	42,82
799,86	85,18
800,04	172,87
800,22	312,70
800,39	536,21
800,57	695,49
800,75	841,57
800,93	829,99
801,10	796,12
801,28	570,29
801,46	359,96
801,63	166,72
801,81	89,52
801,99	49,94
802,17	39,66
802,34	25,12
802,52	20,63
802,70	18,37
802,88	12,52
803,05	9,72
803,23	9,37
803,41	7,21
803,58	7,67
803,76	8,18
803,94	1,02
804,12	2,14
804,29	6,27
804,47	6,61
804,65	0,96
804,82	0,53
805,00	4,71
805,18	3,61
805,35	1,91
805,53	-1,14
805,71	2,86
805,89	1,04
806,06	4,41
806,24	5,67
806,42	-0,60
806,59	0,85
806,77	5,94
806,95	3,18
807,12	-0,70
807,30	4,56
807,48	2,21
807,65	4,41
807,83	3,00
808,01	1,62
808,18	2,25
808,36	4,33
808,54	-1,03
808,71	6,95
808,89	4,69
809,07	20,79
809,24	94,37
809,42	285,61
809,60	590,00
809,77	766,48
809,95	1028,11
810,13	1390,47
810,30	2221,02
810,48	3266,93
810,66	4543,13
810,83	5411,20
811,01	5906,52
811,18	5587,34
811,36	4989,28
811,54	3720,24
811,71	2616,07
811,89	1755,84
812,07	1290,65
812,24	913,58
812,42	737,33
812,59	519,93
812,77	420,39
812,95	296,81
813,12	227,42
813,30	150,21
813,48	118,61
813,65	76,07
813,83	57,97
814,00	33,95
814,18	25,28
814,36	17,90
814,53	11,98
814,71	7,85
814,88	7,09
815,06	7,48
815,24	7,71
815,41	7,83
815,59	7,42
815,76	3,69
815,94	6,39
816,12	5,13
816,29	5,39
816,47	5,18
816,64	8,51
816,82	29,42
817,00	260,19
817,17	1465,98
817,35	3499,00
817,52	5122,30
817,70	6457,29
817,87	7099,27
818,05	7959,21
818,23	8767,58
818,40	10593,26
818,58	12342,42
818,75	14323,05
818,93	14932,13
819,10	14875,97
819,28	13039,62
819,46	10767,65
819,63	8028,59
819,81	6225,50
819,98	4890,36
820,16	3991,42
820,33	3248,77
820,51	2800,65
820,68	2230,71
820,86	1896,20
821,03	1393,70
821,21	1047,10
821,39	706,98
821,56	530,03
821,74	329,53
821,91	232,99
822,09	130,10
822,26	71,66
822,44	39,98
822,61	26,69
822,79	17,15
822,96	20,35
823,14	11,82
823,31	10,29
823,49	7,97
823,66	5,31
823,84	8,00
824,01	0,64
824,19	9,02
824,36	9,13
824,54	10,25
824,71	7,27
824,89	8,17
825,06	8,82
825,24	17,27
825,41	28,74
825,59	50,06
825,76	86,23
825,94	96,54
826,11	111,75
826,29	79,12
826,46	53,86
826,64	34,84
826,81	24,29
826,99	18,62
827,16	16,96
827,34	11,96
827,51	12,96
827,69	13,74
827,86	8,86
828,04	7,22
828,21	10,95
828,39	9,63
828,56	7,99
828,74	5,34
828,91	8,41
829,09	9,13
829,26	3,42
829,43	7,37
829,61	6,42
829,78	2,43
829,96	7,71
830,13	6,18
830,31	0,46
830,48	3,23
830,66	4,25
830,83	6,52
831,01	1,75
831,18	2,87
831,35	1,45
831,53	0,89
831,70	4,87
831,88	3,54
832,05	1,88
832,23	-0,08
832,40	6,52
832,57	7,82
832,75	2,63
832,92	5,72
833,10	4,56
833,27	0,17
833,45	1,64
833,62	2,71
833,79	1,75
833,97	1,22
834,14	1,72
834,32	4,95
834,49	1,54
834,66	1,42
834,84	3,69
835,01	-0,15
835,19	2,09
835,36	2,50
835,53	3,26
835,71	1,76
835,88	5,07
836,06	4,19
836,23	1,82
836,40	-1,04
836,58	4,36
836,75	4,18
836,93	2,18
837,10	1,65
837,27	0,46
837,45	6,27
837,62	5,26
837,79	2,56
837,97	3,92
838,14	-0,02
838,32	0,79
838,49	3,17
838,66	3,11
838,84	2,13
839,01	4,11
839,18	4,96
839,36	6,49
839,53	6,07
839,70	19,89
839,88	33,08
840,05	81,25
840,23	114,85
840,40	158,20
840,57	141,51
840,75	132,53
840,92	96,25
841,09	106,82
841,27	134,20
841,44	234,37
841,61	352,14
841,79	483,98
841,96	529,76
842,13	563,52
842,31	460,20
842,48	377,12
842,65	244,10
842,83	167,79
843,00	108,06
843,17	87,82
843,35	58,02
843,52	50,45
843,69	35,09
843,86	30,45
844,04	21,16
844,21	18,87
844,38	14,31
844,56	9,20
844,73	8,85
844,90	7,86
845,08	4,80
845,25	6,18
845,42	4,43
845,60	5,24
845,77	7,52
845,94	2,37
846,11	7,94
846,29	4,51
846,46	1,43
846,63	0,16
846,81	2,52
846,98	-1,34
847,15	-0,39
847,32	0,32
847,50	0,42
847,67	3,12
847,84	2,50
848,01	1,79
848,19	2,27
848,36	-0,93
848,53	0,32
848,71	1,32
848,88	5,57
849,05	5,47
849,22	-2,71
849,40	-1,32
849,57	0,95
849,74	2,78
849,91	1,95
850,09	3,43
850,26	1,48
850,43	0,22
850,60	3,11
850,78	1,31
850,95	1,98
851,12	9,74
851,29	6,54
851,47	9,44
851,64	9,27
851,81	11,80
851,98	11,62
852,15	10,07
852,33	9,47
852,50	5,56
852,67	7,99
852,84	1,16
853,02	3,17
853,19	1,05
853,36	5,89
853,53	1,55
853,70	5,36
853,88	2,97
854,05	1,13
854,22	-1,62
854,39	0,97
854,56	5,52
854,74	1,51
854,91	6,71
855,08	5,12
855,25	3,81
855,42	3,17
855,60	-0,29
855,77	-0,90
855,94	-1,40
856,11	1,77
856,28	2,17
856,46	-4,73
856,63	-0,52
856,80	2,11
856,97	0,65
857,14	0,35
857,31	0,33
857,49	2,70
857,66	-0,13
857,83	-0,44
858,00	-0,95
858,17	3,92
858,34	-0,35
858,52	-0,52
858,69	-3,04
858,86	-0,86
859,03	-2,81
859,20	-0,57
859,37	1,75
859,55	8,98
859,72	2,47
859,89	1,92
860,06	2,92
860,23	-0,57
860,40	1,82
860,57	1,39
860,75	-0,75
860,92	0,32
861,09	3,53
861,26	1,57
861,43	3,67
861,60	0,73
861,77	2,23
861,95	2,84
862,12	1,38
862,29	2,31
862,46	0,04
862,63	0,51
862,80	6,32
862,97	-1,34
863,14	2,78
863,31	0,51
863,49	-1,85
863,66	3,44
863,83	0,26
864,00	3,60
864,17	-1,04
864,34	2,26
864,51	-0,68
864,68	1,70
864,85	2,70
865,02	1,83
865,20	-1,15
865,37	1,52
865,54	0,61
865,71	1,04
865,88	2,13
866,05	1,42
866,22	0,44
866,39	5,55
866,56	0,89
866,73	2,99
866,90	1,74
867,07	-2,11
867,25	-2,51
867,42	2,59
867,59	-0,65
867,76	1,68
867,93	0,62
868,10	0,47
868,27	-1,81
868,44	-1,43
868,61	-0,52
868,78	0,57
868,95	-0,89
869,12	1,42
869,29	1,29
869,46	-3,81
869,63	4,79
869,80	-1,05
869,97	0,72
870,14	2,95
870,32	-0,28
870,49	-2,51
870,66	1,92
870,83	6,70
871,00	1,74
871,17	2,13
871,34	0,49
871,51	-1,09
871,68	1,25
871,85	3,72
872,02	-0,25
872,19	-2,29
872,36	3,21
872,53	2,72
872,70	-2,41
872,87	2,77
873,04	-1,97
873,21	2,95
873,38	3,68
873,55	1,13
873,72	5,87
873,89	-1,19
874,06	-1,88
874,23	-0,09
874,40	0,86
874,57	-0,55
874,74	-2,82
874,91	8,31
875,08	-0,41
875,25	-0,13
875,42	3,75
875,59	2,04
875,76	-1,86
875,93	-4,02
876,10	-0,10
876,27	2,03
876,44	-2,12
876,61	2,98
876,78	1,42
876,95	4,02
877,12	0,20
877,29	-0,44
877,46	-3,71
877,62	-1,75
877,79	2,15
877,96	2,28
878,13	2,83
878,30	3,60
878,47	-0,18
878,64	-2,52
878,81	-1,04
878,98	2,15
879,15	2,19
879,32	-1,43
879,49	1,35
879,66	1,54
879,83	-0,72
880,00	-2,77
880,17	0,01
880,34	-1,68
880,51	-0,60
880,67	3,14
880,84	1,95
881,01	-3,53
881,18	0,97
881,35	2,41
881,52	-4,44
881,69	1,26
881,86	-3,47
882,03	3,56
882,20	1,47
882,37	-0,93
882,54	2,66
882,70	3,72
882,87	0,45
883,04	1,09
883,21	1,21
883,38	0,15
883,55	0,04
883,72	2,07
883,89	3,75
884,06	3,43
884,23	-2,83
884,39	-3,73
884,56	4,80
884,73	-3,08
884,90	0,21
885,07	-1,70
885,24	-0,21
885,41	-0,27
885,58	4,37
885,74	-0,44
885,91	2,61
886,08	4,59
886,25	0,25
886,42	-0,29
886,59	3,67
886,76	0,23
886,93	0,90
887,09	-1,02
887,26	2,38
887,43	3,99
887,60	0,67
887,77	8,02
887,94	1,59
888,10	0,03
888,27	1,45
888,44	0,42
888,61	-1,60
888,78	1,80
888,95	0,65
889,12	-4,18
889,28	0,41
889,45	-3,50
889,62	1,28
889,79	0,46
889,96	1,41
890,13	3,00
890,29	1,06
890,46	-0,19
890,63	4,68
890,80	-1,16
890,97	0,04
891,13	3,38
891,30	5,75
891,47	3,53
891,64	-0,10
891,81	2,58
891,98	-2,37
892,14	0,06
892,31	-0,09
892,48	-0,33
892,65	0,27
892,82	1,81
892,98	-1,91
893,15	0,49
893,32	-1,45
>>>>>End Processed Spectral Data<<<<<
