SpectraSuite Datei
++++++++++++++++++++++++++++++++++++
Datum: Thu Mar 09 10:35:30 CET 2017
Benutzer: Admin
Dark-Spektrum vorhanden: Nein
Referenz-Spektrum vorhanden: Nein
Zahl der probierten Teilspektren: 1
Spektrometer: USB4F05832
Integrationszeit (usec): 100000 (USB4F05832)
Spektren Durchschnitt berechnet: 1 (USB4F05832)
Boxcar Glättung: 0 (USB4F05832)
Dunkelstromkorrektur: Nein (USB4F05832)
Puls/Lampe aktiviert: Nein (USB4F05832)
Correct for Detector Non-linearity: Nein (USB4F05832)
Streulichtkorrektur: Nein (USB4F05832)
Anzahl Pixel in verarbeitetem Spektrum: 3648
>>>>>Begin Processed Spectral Data<<<<<
177,54	1343,47
177,75	1343,47
177,97	1343,47
178,19	1300,46
178,41	1396,71
178,63	1482,73
178,85	1419,24
179,07	1390,57
179,29	1433,58
179,51	1335,28
179,73	1492,97
179,95	1456,11
180,17	1425,39
180,39	1562,60
180,61	1474,54
180,83	1548,26
181,05	1439,72
181,27	1523,69
181,49	1456,11
181,71	1505,26
181,92	1628,14
182,14	1490,92
182,36	1427,43
182,58	1531,88
182,80	1505,26
183,02	1562,60
183,24	1611,75
183,46	1478,63
183,68	1456,11
183,90	1421,29
184,12	1480,68
184,34	1509,35
184,56	1456,11
184,78	1466,35
185,00	1572,84
185,21	1517,54
185,43	1374,19
185,65	1529,83
185,87	1492,97
186,09	1576,94
186,31	1447,91
186,53	1509,35
186,75	1550,31
186,97	1525,74
187,19	1538,02
187,41	1400,81
187,63	1644,52
187,84	1509,35
188,06	1562,60
188,28	1505,26
188,50	1572,84
188,72	1505,26
188,94	1583,08
189,16	1445,87
189,38	1468,39
189,60	1587,18
189,82	1476,59
190,03	1484,78
190,25	1480,68
190,47	1552,36
190,69	1490,92
190,91	1406,95
191,13	1472,49
191,35	1497,07
191,57	1480,68
191,79	1515,50
192,01	1515,50
192,22	1523,69
192,44	1499,11
192,66	1495,02
192,88	1583,08
193,10	1480,68
193,32	1458,15
193,54	1558,50
193,76	1527,78
193,98	1458,15
194,19	1505,26
194,41	1462,25
194,63	1439,72
194,85	1523,69
195,07	1591,27
195,29	1441,77
195,51	1521,64
195,73	1488,87
195,94	1454,06
196,16	1470,44
196,38	1572,84
196,60	1535,98
196,82	1490,92
197,04	1460,20
197,26	1443,82
197,48	1499,11
197,69	1486,83
197,91	1447,91
198,13	1503,21
198,35	1466,35
198,57	1556,46
198,79	1501,16
199,01	1544,17
199,22	1452,01
199,44	1542,12
199,66	1529,83
199,88	1533,93
200,10	1511,40
200,32	1562,60
200,54	1558,50
200,75	1535,98
200,97	1482,73
201,19	1560,55
201,41	1546,22
201,63	1515,50
201,85	1449,96
202,06	1447,91
202,28	1490,92
202,50	1484,78
202,72	1478,63
202,94	1417,19
203,16	1482,73
203,38	1415,15
203,59	1525,74
203,81	1570,79
204,03	1380,33
204,25	1558,50
204,47	1529,83
204,69	1484,78
204,90	1454,06
205,12	1468,39
205,34	1458,15
205,56	1482,73
205,78	1439,72
206,00	1576,94
206,21	1558,50
206,43	1581,03
206,65	1525,74
206,87	1497,07
207,09	1564,65
207,30	1415,15
207,52	1578,98
207,74	1546,22
207,96	1503,21
208,18	1478,63
208,40	1515,50
208,61	1501,16
208,83	1513,45
209,05	1374,19
209,27	1456,11
209,49	1523,69
209,70	1484,78
209,92	1552,36
210,14	1495,02
210,36	1431,53
210,58	1523,69
210,79	1488,87
211,01	1462,25
211,23	1503,21
211,45	1517,54
211,67	1492,97
211,88	1404,91
212,10	1503,21
212,32	1423,34
212,54	1497,07
212,76	1509,35
212,97	1435,63
213,19	1476,59
213,41	1564,65
213,63	1517,54
213,85	1484,78
214,06	1456,11
214,28	1513,45
214,50	1548,26
214,72	1552,36
214,94	1521,64
215,15	1421,29
215,37	1499,11
215,59	1529,83
215,81	1513,45
216,02	1529,83
216,24	1466,35
216,46	1468,39
216,68	1497,07
216,90	1529,83
217,11	1552,36
217,33	1468,39
217,55	1529,83
217,77	1548,26
217,98	1503,21
218,20	1452,01
218,42	1585,13
218,64	1447,91
218,85	1556,46
219,07	1458,15
219,29	1554,41
219,51	1529,83
219,73	1501,16
219,94	1507,30
220,16	1503,21
220,38	1497,07
220,60	1480,68
220,81	1452,01
221,03	1423,34
221,25	1462,25
221,47	1406,95
221,68	1482,73
221,90	1542,12
222,12	1538,02
222,34	1460,20
222,55	1513,45
222,77	1624,04
222,99	1488,87
223,21	1484,78
223,42	1552,36
223,64	1558,50
223,86	1441,77
224,08	1464,30
224,29	1515,50
224,51	1460,20
224,73	1513,45
224,94	1462,25
225,16	1441,77
225,38	1435,63
225,60	1517,54
225,81	1517,54
226,03	1521,64
226,25	1427,43
226,47	1517,54
226,68	1572,84
226,90	1507,30
227,12	1488,87
227,33	1554,41
227,55	1509,35
227,77	1443,82
227,99	1495,02
228,20	1482,73
228,42	1468,39
228,64	1480,68
228,86	1497,07
229,07	1503,21
229,29	1443,82
229,51	1482,73
229,72	1554,41
229,94	1519,59
230,16	1554,41
230,38	1439,72
230,59	1486,83
230,81	1529,83
231,03	1507,30
231,24	1456,11
231,46	1411,05
231,68	1538,02
231,89	1499,11
232,11	1482,73
232,33	1525,74
232,55	1556,46
232,76	1519,59
232,98	1533,93
233,20	1503,21
233,41	1505,26
233,63	1409,00
233,85	1468,39
234,06	1462,25
234,28	1552,36
234,50	1439,72
234,71	1497,07
234,93	1566,70
235,15	1505,26
235,37	1423,34
235,58	1507,30
235,80	1480,68
236,02	1417,19
236,23	1488,87
236,45	1476,59
236,67	1576,94
236,88	1482,73
237,10	1542,12
237,32	1556,46
237,53	1478,63
237,75	1443,82
237,97	1384,43
238,18	1441,77
238,40	1478,63
238,62	1468,39
238,83	1470,44
239,05	1435,63
239,27	1476,59
239,48	1445,87
239,70	1503,21
239,92	1566,70
240,13	1581,03
240,35	1501,16
240,57	1515,50
240,78	1507,30
241,00	1484,78
241,22	1472,49
241,43	1558,50
241,65	1417,19
241,87	1558,50
242,08	1554,41
242,30	1431,53
242,52	1513,45
242,73	1556,46
242,95	1458,15
243,16	1501,16
243,38	1531,88
243,60	1488,87
243,81	1499,11
244,03	1513,45
244,25	1392,62
244,46	1454,06
244,68	1488,87
244,90	1435,63
245,11	1458,15
245,33	1468,39
245,55	1468,39
245,76	1492,97
245,98	1495,02
246,19	1630,18
246,41	1578,98
246,63	1552,36
246,84	1529,83
247,06	1435,63
247,28	1538,02
247,49	1492,97
247,71	1482,73
247,92	1556,46
248,14	1509,35
248,36	1558,50
248,57	1497,07
248,79	1583,08
249,01	1531,88
249,22	1509,35
249,44	1490,92
249,65	1529,83
249,87	1548,26
250,09	1513,45
250,30	1521,64
250,52	1492,97
250,73	1550,31
250,95	1443,82
251,17	1562,60
251,38	1499,11
251,60	1406,95
251,81	1646,57
252,03	1566,70
252,25	1425,39
252,46	1515,50
252,68	1605,61
252,89	1548,26
253,11	1445,87
253,33	1439,72
253,54	1376,24
253,76	1521,64
253,97	1474,54
254,19	1574,89
254,41	1431,53
254,62	1505,26
254,84	1554,41
255,05	1452,01
255,27	1495,02
255,49	1474,54
255,70	1538,02
255,92	1515,50
256,13	1452,01
256,35	1546,22
256,56	1533,93
256,78	1492,97
257,00	1503,21
257,21	1488,87
257,43	1427,43
257,64	1505,26
257,86	1533,93
258,08	1507,30
258,29	1513,45
258,51	1435,63
258,72	1521,64
258,94	1550,31
259,15	1529,83
259,37	1511,40
259,59	1513,45
259,80	1517,54
260,02	1488,87
260,23	1488,87
260,45	1431,53
260,66	1529,83
260,88	1535,98
261,09	1566,70
261,31	1478,63
261,53	1542,12
261,74	1478,63
261,96	1466,35
262,17	1452,01
262,39	1476,59
262,60	1574,89
262,82	1550,31
263,03	1492,97
263,25	1562,60
263,46	1464,30
263,68	1593,32
263,90	1406,95
264,11	1456,11
264,33	1521,64
264,54	1474,54
264,76	1525,74
264,97	1605,61
265,19	1497,07
265,40	1513,45
265,62	1509,35
265,83	1546,22
266,05	1495,02
266,26	1464,30
266,48	1511,40
266,70	1556,46
266,91	1443,82
267,13	1538,02
267,34	1470,44
267,56	1435,63
267,77	1460,20
267,99	1490,92
268,20	1570,79
268,42	1544,17
268,63	1386,47
268,85	1619,94
269,06	1597,42
269,28	1611,75
269,49	1574,89
269,71	1564,65
269,92	1409,00
270,14	1501,16
270,35	1517,54
270,57	1523,69
270,78	1423,34
271,00	1478,63
271,21	1603,56
271,43	1527,78
271,64	1490,92
271,86	1550,31
272,07	1413,10
272,29	1542,12
272,50	1556,46
272,72	1554,41
272,93	1550,31
273,15	1576,94
273,36	1492,97
273,58	1474,54
273,79	1445,87
274,01	1521,64
274,22	1433,58
274,44	1490,92
274,65	1578,98
274,87	1497,07
275,08	1542,12
275,30	1515,50
275,51	1607,66
275,73	1576,94
275,94	1542,12
276,16	1497,07
276,37	1458,15
276,59	1495,02
276,80	1400,81
277,02	1521,64
277,23	1605,61
277,45	1503,21
277,66	1488,87
277,88	1509,35
278,09	1636,33
278,30	1447,91
278,52	1427,43
278,73	1540,07
278,95	1460,20
279,16	1570,79
279,38	1542,12
279,59	1454,06
279,81	1535,98
280,02	1542,12
280,24	1470,44
280,45	1538,02
280,67	1529,83
280,88	1636,33
281,09	1423,34
281,31	1441,77
281,52	1501,16
281,74	1544,17
281,95	1523,69
282,17	1533,93
282,38	1546,22
282,60	1544,17
282,81	1458,15
283,02	1480,68
283,24	1441,77
283,45	1529,83
283,67	1445,87
283,88	1533,93
284,10	1509,35
284,31	1581,03
284,53	1482,73
284,74	1417,19
284,95	1417,19
285,17	1523,69
285,38	1464,30
285,60	1476,59
285,81	1456,11
286,03	1490,92
286,24	1525,74
286,45	1550,31
286,67	1501,16
286,88	1484,78
287,10	1570,79
287,31	1464,30
287,53	1548,26
287,74	1632,23
287,95	1472,49
288,17	1523,69
288,38	1542,12
288,60	1468,39
288,81	1513,45
289,02	1437,67
289,24	1521,64
289,45	1478,63
289,67	1558,50
289,88	1449,96
290,10	1540,07
290,31	1529,83
290,52	1501,16
290,74	1474,54
290,95	1550,31
291,17	1482,73
291,38	1460,20
291,59	1474,54
291,81	1531,88
292,02	1531,88
292,24	1499,11
292,45	1554,41
292,66	1585,13
292,88	1611,75
293,09	1521,64
293,31	1490,92
293,52	1570,79
293,73	1462,25
293,95	1562,60
294,16	1636,33
294,37	1546,22
294,59	1552,36
294,80	1564,65
295,02	1501,16
295,23	1411,05
295,44	1507,30
295,66	1484,78
295,87	1540,07
296,09	1542,12
296,30	1486,83
296,51	1527,78
296,73	1447,91
296,94	1447,91
297,15	1480,68
297,37	1488,87
297,58	1472,49
297,79	1488,87
298,01	1533,93
298,22	1589,22
298,44	1535,98
298,65	1519,59
298,86	1546,22
299,08	1478,63
299,29	1562,60
299,50	1484,78
299,72	1427,43
299,93	1452,01
300,14	1562,60
300,36	1501,16
300,57	1542,12
300,79	1454,06
301,00	1548,26
301,21	1433,58
301,43	1480,68
301,64	1554,41
301,85	1490,92
302,07	1581,03
302,28	1441,77
302,49	1605,61
302,71	1507,30
302,92	1533,93
303,13	1546,22
303,35	1515,50
303,56	1490,92
303,77	1468,39
303,99	1460,20
304,20	1472,49
304,41	1515,50
304,63	1402,86
304,84	1644,52
305,05	1552,36
305,27	1560,55
305,48	1546,22
305,69	1454,06
305,91	1488,87
306,12	1476,59
306,33	1509,35
306,55	1495,02
306,76	1476,59
306,97	1495,02
307,19	1527,78
307,40	1570,79
307,61	1560,55
307,82	1488,87
308,04	1554,41
308,25	1597,42
308,46	1538,02
308,68	1472,49
308,89	1519,59
309,10	1503,21
309,32	1513,45
309,53	1511,40
309,74	1499,11
309,96	1476,59
310,17	1466,35
310,38	1458,15
310,59	1519,59
310,81	1574,89
311,02	1533,93
311,23	1535,98
311,45	1497,07
311,66	1595,37
311,87	1421,29
312,09	1538,02
312,30	1456,11
312,51	1468,39
312,72	1466,35
312,94	1603,56
313,15	1458,15
313,36	1535,98
313,58	1513,45
313,79	1542,12
314,00	1478,63
314,21	1419,24
314,43	1480,68
314,64	1482,73
314,85	1460,20
315,06	1466,35
315,28	1558,50
315,49	1587,18
315,70	1509,35
315,92	1589,22
316,13	1609,70
316,34	1591,27
316,55	1490,92
316,77	1476,59
316,98	1576,94
317,19	1490,92
317,40	1439,72
317,62	1466,35
317,83	1568,74
318,04	1525,74
318,25	1499,11
318,47	1464,30
318,68	1464,30
318,89	1597,42
319,11	1460,20
319,32	1525,74
319,53	1546,22
319,74	1578,98
319,96	1560,55
320,17	1478,63
320,38	1458,15
320,59	1589,22
320,81	1466,35
321,02	1593,32
321,23	1497,07
321,44	1507,30
321,65	1454,06
321,87	1460,20
322,08	1570,79
322,29	1535,98
322,50	1550,31
322,72	1474,54
322,93	1503,21
323,14	1495,02
323,35	1497,07
323,57	1572,84
323,78	1464,30
323,99	1597,42
324,20	1591,27
324,41	1427,43
324,63	1566,70
324,84	1492,97
325,05	1507,30
325,26	1570,79
325,48	1470,44
325,69	1517,54
325,90	1517,54
326,11	1503,21
326,32	1570,79
326,54	1515,50
326,75	1511,40
326,96	1474,54
327,17	1497,07
327,39	1501,16
327,60	1566,70
327,81	1562,60
328,02	1478,63
328,23	1495,02
328,45	1490,92
328,66	1458,15
328,87	1521,64
329,08	1490,92
329,29	1497,07
329,51	1490,92
329,72	1474,54
329,93	1460,20
330,14	1431,53
330,35	1511,40
330,56	1501,16
330,78	1535,98
330,99	1507,30
331,20	1525,74
331,41	1525,74
331,62	1523,69
331,84	1464,30
332,05	1531,88
332,26	1552,36
332,47	1552,36
332,68	1486,83
332,90	1456,11
333,11	1429,48
333,32	1628,14
333,53	1585,13
333,74	1431,53
333,95	1523,69
334,17	1480,68
334,38	1497,07
334,59	1484,78
334,80	1454,06
335,01	1542,12
335,22	1478,63
335,44	1550,31
335,65	1398,76
335,86	1595,37
336,07	1542,12
336,28	1449,96
336,49	1462,25
336,71	1435,63
336,92	1591,27
337,13	1505,26
337,34	1492,97
337,55	1562,60
337,76	1542,12
337,97	1597,42
338,19	1515,50
338,40	1515,50
338,61	1626,09
338,82	1513,45
339,03	1439,72
339,24	1419,24
339,45	1490,92
339,67	1456,11
339,88	1540,07
340,09	1480,68
340,30	1464,30
340,51	1531,88
340,72	1529,83
340,93	1456,11
341,15	1482,73
341,36	1533,93
341,57	1476,59
341,78	1462,25
341,99	1513,45
342,20	1525,74
342,41	1449,96
342,62	1583,08
342,84	1435,63
343,05	1521,64
343,26	1361,90
343,47	1519,59
343,68	1380,33
343,89	1452,01
344,10	1474,54
344,31	1529,83
344,53	1445,87
344,74	1505,26
344,95	1441,77
345,16	1492,97
345,37	1552,36
345,58	1531,88
345,79	1507,30
346,00	1509,35
346,21	1476,59
346,42	1392,62
346,64	1474,54
346,85	1454,06
347,06	1511,40
347,27	1495,02
347,48	1564,65
347,69	1486,83
347,90	1501,16
348,11	1525,74
348,32	1441,77
348,53	1458,15
348,75	1501,16
348,96	1499,11
349,17	1443,82
349,38	1505,26
349,59	1443,82
349,80	1468,39
350,01	1619,94
350,22	1558,50
350,43	1497,07
350,64	1533,93
350,85	1523,69
351,06	1460,20
351,28	1519,59
351,49	1511,40
351,70	1458,15
351,91	1492,97
352,12	1464,30
352,33	1513,45
352,54	1480,68
352,75	1441,77
352,96	1513,45
353,17	1466,35
353,38	1501,16
353,59	1501,16
353,80	1609,70
354,01	1572,84
354,22	1417,19
354,44	1492,97
354,65	1605,61
354,86	1495,02
355,07	1478,63
355,28	1484,78
355,49	1550,31
355,70	1501,16
355,91	1458,15
356,12	1439,72
356,33	1486,83
356,54	1484,78
356,75	1472,49
356,96	1476,59
357,17	1624,04
357,38	1488,87
357,59	1628,14
357,80	1578,98
358,01	1482,73
358,22	1552,36
358,43	1497,07
358,64	1503,21
358,85	1462,25
359,07	1538,02
359,28	1411,05
359,49	1499,11
359,70	1333,23
359,91	1513,45
360,12	1470,44
360,33	1503,21
360,54	1433,58
360,75	1433,58
360,96	1482,73
361,17	1441,77
361,38	1443,82
361,59	1540,07
361,80	1466,35
362,01	1540,07
362,22	1509,35
362,43	1454,06
362,64	1431,53
362,85	1538,02
363,06	1497,07
363,27	1445,87
363,48	1578,98
363,69	1619,94
363,90	1402,86
364,11	1509,35
364,32	1435,63
364,53	1560,55
364,74	1550,31
364,95	1533,93
365,16	1542,12
365,37	1562,60
365,58	1441,77
365,79	1538,02
366,00	1538,02
366,21	1486,83
366,42	1521,64
366,63	1441,77
366,84	1460,20
367,05	1474,54
367,26	1499,11
367,47	1521,64
367,68	1499,11
367,89	1480,68
368,10	1484,78
368,31	1435,63
368,52	1525,74
368,73	1484,78
368,94	1460,20
369,15	1503,21
369,36	1437,67
369,57	1437,67
369,78	1425,39
369,99	1478,63
370,20	1523,69
370,40	1503,21
370,61	1437,67
370,82	1501,16
371,03	1492,97
371,24	1521,64
371,45	1462,25
371,66	1484,78
371,87	1529,83
372,08	1538,02
372,29	1538,02
372,50	1574,89
372,71	1572,84
372,92	1540,07
373,13	1456,11
373,34	1415,15
373,55	1513,45
373,76	1525,74
373,97	1456,11
374,18	1488,87
374,39	1435,63
374,60	1540,07
374,81	1429,48
375,01	1443,82
375,22	1540,07
375,43	1468,39
375,64	1490,92
375,85	1423,34
376,06	1511,40
376,27	1482,73
376,48	1566,70
376,69	1544,17
376,90	1525,74
377,11	1572,84
377,32	1507,30
377,53	1472,49
377,74	1476,59
377,94	1423,34
378,15	1492,97
378,36	1556,46
378,57	1429,48
378,78	1572,84
378,99	1402,86
379,20	1605,61
379,41	1525,74
379,62	1462,25
379,83	1435,63
380,04	1525,74
380,25	1486,83
380,45	1490,92
380,66	1505,26
380,87	1427,43
381,08	1531,88
381,29	1505,26
381,50	1538,02
381,71	1421,29
381,92	1517,54
382,13	1458,15
382,34	1517,54
382,55	1452,01
382,75	1482,73
382,96	1531,88
383,17	1472,49
383,38	1581,03
383,59	1574,89
383,80	1456,11
384,01	1511,40
384,22	1527,78
384,43	1525,74
384,63	1474,54
384,84	1484,78
385,05	1546,22
385,26	1490,92
385,47	1525,74
385,68	1513,45
385,89	1585,13
386,10	1470,44
386,30	1468,39
386,51	1533,93
386,72	1505,26
386,93	1392,62
387,14	1513,45
387,35	1472,49
387,56	1572,84
387,77	1449,96
387,97	1495,02
388,18	1515,50
388,39	1458,15
388,60	1517,54
388,81	1533,93
389,02	1529,83
389,23	1540,07
389,43	1480,68
389,64	1413,10
389,85	1505,26
390,06	1556,46
390,27	1394,67
390,48	1529,83
390,69	1484,78
390,89	1431,53
391,10	1535,98
391,31	1482,73
391,52	1486,83
391,73	1593,32
391,94	1441,77
392,14	1456,11
392,35	1427,43
392,56	1529,83
392,77	1529,83
392,98	1443,82
393,19	1503,21
393,39	1576,94
393,60	1468,39
393,81	1576,94
394,02	1595,37
394,23	1443,82
394,44	1443,82
394,64	1519,59
394,85	1423,34
395,06	1533,93
395,27	1538,02
395,48	1533,93
395,69	1542,12
395,89	1540,07
396,10	1449,96
396,31	1591,27
396,52	1402,86
396,73	1484,78
396,93	1447,91
397,14	1501,16
397,35	1585,13
397,56	1517,54
397,77	1425,39
397,97	1591,27
398,18	1468,39
398,39	1505,26
398,60	1460,20
398,81	1425,39
399,01	1470,44
399,22	1433,58
399,43	1542,12
399,64	1523,69
399,85	1542,12
400,05	1452,01
400,26	1445,87
400,47	1505,26
400,68	1431,53
400,89	1626,09
401,09	1480,68
401,30	1411,05
401,51	1501,16
401,72	1476,59
401,93	1591,27
402,13	1492,97
402,34	1554,41
402,55	1402,86
402,76	1503,21
402,96	1466,35
403,17	1460,20
403,38	1531,88
403,59	1509,35
403,80	1447,91
404,00	1527,78
404,21	1484,78
404,42	1468,39
404,63	1462,25
404,83	1464,30
405,04	1486,83
405,25	1456,11
405,46	1546,22
405,66	1513,45
405,87	1519,59
406,08	1513,45
406,29	1495,02
406,49	1431,53
406,70	1540,07
406,91	1388,52
407,12	1480,68
407,32	1527,78
407,53	1501,16
407,74	1533,93
407,95	1611,75
408,15	1511,40
408,36	1431,53
408,57	1497,07
408,78	1478,63
408,98	1490,92
409,19	1527,78
409,40	1523,69
409,61	1507,30
409,81	1466,35
410,02	1456,11
410,23	1607,66
410,44	1548,26
410,64	1421,29
410,85	1484,78
411,06	1515,50
411,26	1613,80
411,47	1513,45
411,68	1523,69
411,89	1490,92
412,09	1449,96
412,30	1488,87
412,51	1466,35
412,72	1542,12
412,92	1482,73
413,13	1503,21
413,34	1449,96
413,54	1402,86
413,75	1564,65
413,96	1486,83
414,17	1400,81
414,37	1472,49
414,58	1505,26
414,79	1505,26
414,99	1490,92
415,20	1509,35
415,41	1439,72
415,61	1480,68
415,82	1497,07
416,03	1517,54
416,24	1499,11
416,44	1531,88
416,65	1484,78
416,86	1507,30
417,06	1456,11
417,27	1478,63
417,48	1472,49
417,68	1482,73
417,89	1576,94
418,10	1431,53
418,30	1531,88
418,51	1462,25
418,72	1464,30
418,92	1411,05
419,13	1507,30
419,34	1435,63
419,55	1517,54
419,75	1935,33
419,96	1486,83
420,17	1497,07
420,37	1482,73
420,58	1538,02
420,79	1452,01
420,99	1492,97
421,20	1554,41
421,41	1497,07
421,61	1533,93
421,82	1474,54
422,03	1523,69
422,23	1433,58
422,44	1460,20
422,65	1605,61
422,85	1415,15
423,06	1476,59
423,26	1562,60
423,47	1566,70
423,68	1562,60
423,88	1540,07
424,09	1521,64
424,30	1529,83
424,50	1513,45
424,71	1517,54
424,92	1503,21
425,12	1593,32
425,33	1533,93
425,54	1529,83
425,74	1515,50
425,95	1482,73
426,15	1441,77
426,36	1431,53
426,57	1525,74
426,77	1472,49
426,98	1419,24
427,19	1357,80
427,39	1402,86
427,60	1517,54
427,81	1488,87
428,01	1505,26
428,22	1484,78
428,42	1468,39
428,63	1458,15
428,84	1501,16
429,04	1499,11
429,25	1517,54
429,45	1409,00
429,66	1542,12
429,87	1484,78
430,07	1595,37
430,28	1542,12
430,49	1560,55
430,69	1503,21
430,90	1462,25
431,10	1490,92
431,31	1521,64
431,52	1554,41
431,72	1544,17
431,93	1548,26
432,13	1574,89
432,34	1615,85
432,55	1466,35
432,75	1454,06
432,96	1515,50
433,16	1566,70
433,37	1505,26
433,58	1472,49
433,78	1507,30
433,99	1492,97
434,19	1466,35
434,40	1511,40
434,60	1550,31
434,81	1499,11
435,02	1468,39
435,22	1476,59
435,43	1431,53
435,63	1456,11
435,84	1464,30
436,05	1544,17
436,25	1470,44
436,46	1484,78
436,66	1523,69
436,87	1478,63
437,07	1484,78
437,28	1521,64
437,48	1468,39
437,69	1480,68
437,90	1564,65
438,10	1521,64
438,31	1529,83
438,51	1466,35
438,72	1499,11
438,92	1447,91
439,13	1544,17
439,34	1488,87
439,54	1556,46
439,75	1411,05
439,95	1472,49
440,16	1437,67
440,36	1587,18
440,57	1546,22
440,77	1572,84
440,98	1431,53
441,18	1474,54
441,39	1449,96
441,60	1443,82
441,80	1495,02
442,01	1447,91
442,21	1525,74
442,42	1507,30
442,62	1523,69
442,83	1406,95
443,03	1513,45
443,24	1562,60
443,44	1452,01
443,65	1452,01
443,85	1480,68
444,06	1499,11
444,26	1492,97
444,47	1406,95
444,67	1472,49
444,88	1564,65
445,09	1544,17
445,29	1521,64
445,50	1542,12
445,70	1353,71
445,91	1476,59
446,11	1480,68
446,32	1540,07
446,52	1527,78
446,73	1527,78
446,93	1437,67
447,14	1511,40
447,34	1499,11
447,55	1411,05
447,75	1495,02
447,96	1533,93
448,16	1576,94
448,37	1507,30
448,57	1443,82
448,78	1507,30
448,98	1499,11
449,19	1517,54
449,39	1484,78
449,60	1466,35
449,80	1435,63
450,01	1466,35
450,21	1519,59
450,42	1470,44
450,62	1484,78
450,83	1452,01
451,03	1556,46
451,23	1501,16
451,44	1495,02
451,64	1433,58
451,85	1583,08
452,05	1443,82
452,26	1546,22
452,46	1564,65
452,67	1546,22
452,87	1503,21
453,08	1529,83
453,28	1484,78
453,49	1515,50
453,69	1529,83
453,90	1515,50
454,10	1574,89
454,31	1476,59
454,51	1554,41
454,71	1472,49
454,92	1492,97
455,12	1402,86
455,33	1431,53
455,53	1587,18
455,74	1480,68
455,94	1595,37
456,15	1505,26
456,35	1574,89
456,55	1478,63
456,76	1476,59
456,96	1447,91
457,17	1425,39
457,37	1517,54
457,58	1538,02
457,78	1521,64
457,99	1427,43
458,19	1519,59
458,39	1435,63
458,60	1511,40
458,80	1417,19
459,01	1470,44
459,21	1464,30
459,42	1505,26
459,62	1574,89
459,82	1437,67
460,03	1492,97
460,23	1478,63
460,44	1482,73
460,64	1458,15
460,85	1488,87
461,05	1525,74
461,25	1468,39
461,46	1509,35
461,66	1458,15
461,87	1531,88
462,07	1513,45
462,27	1542,12
462,48	1531,88
462,68	1533,93
462,89	1478,63
463,09	1824,74
463,29	1511,40
463,50	1462,25
463,70	1398,76
463,91	1497,07
464,11	1472,49
464,31	1525,74
464,52	1501,16
464,72	1632,23
464,93	1419,24
465,13	1548,26
465,33	1468,39
465,54	1511,40
465,74	1509,35
465,95	1499,11
466,15	1474,54
466,35	1449,96
466,56	1509,35
466,76	1472,49
466,96	1472,49
467,17	1540,07
467,37	1546,22
467,58	1460,20
467,78	1484,78
467,98	1492,97
468,19	1497,07
468,39	1513,45
468,59	1531,88
468,80	1605,61
469,00	1501,16
469,21	1441,77
469,41	1474,54
469,61	1501,16
469,82	1507,30
470,02	1570,79
470,22	1468,39
470,43	1523,69
470,63	1449,96
470,83	1433,58
471,04	1492,97
471,24	1460,20
471,45	1603,56
471,65	1552,36
471,85	1554,41
472,06	1456,11
472,26	1519,59
472,46	1468,39
472,67	1560,55
472,87	1490,92
473,07	1488,87
473,28	1482,73
473,48	1560,55
473,68	1484,78
473,89	1480,68
474,09	1607,66
474,29	1449,96
474,50	1488,87
474,70	1525,74
474,90	1665,00
475,11	1421,29
475,31	1439,72
475,51	1501,16
475,72	1501,16
475,92	1480,68
476,12	1497,07
476,33	1585,13
476,53	1548,26
476,73	1417,19
476,93	1482,73
477,14	1501,16
477,34	1546,22
477,54	1499,11
477,75	1460,20
477,95	1490,92
478,15	1554,41
478,36	1511,40
478,56	1468,39
478,76	1476,59
478,97	1474,54
479,17	1529,83
479,37	1583,08
479,57	1499,11
479,78	1538,02
479,98	1427,43
480,18	1595,37
480,39	1511,40
480,59	1492,97
480,79	1519,59
480,99	1447,91
481,20	1474,54
481,40	1615,85
481,60	1509,35
481,81	1533,93
482,01	1411,05
482,21	1513,45
482,41	1531,88
482,62	1546,22
482,82	1425,39
483,02	1562,60
483,23	1316,84
483,43	1552,36
483,63	1456,11
483,83	1488,87
484,04	1609,70
484,24	1472,49
484,44	1501,16
484,64	1482,73
484,85	1544,17
485,05	1540,07
485,25	1521,64
485,45	1556,46
485,66	1515,50
485,86	1486,83
486,06	1464,30
486,26	1527,78
486,47	1478,63
486,67	1519,59
486,87	1548,26
487,07	1533,93
487,28	1505,26
487,48	1511,40
487,68	1529,83
487,88	1517,54
488,09	1509,35
488,29	1560,55
488,49	1548,26
488,69	1558,50
488,90	1480,68
489,10	1492,97
489,30	1497,07
489,50	1464,30
489,71	1556,46
489,91	1562,60
490,11	1519,59
490,31	1519,59
490,52	1501,16
490,72	1464,30
490,92	1488,87
491,12	1578,98
491,32	1472,49
491,53	1499,11
491,73	1513,45
491,93	1507,30
492,13	1484,78
492,33	1456,11
492,54	1476,59
492,74	1581,03
492,94	1486,83
493,14	1501,16
493,35	1515,50
493,55	1486,83
493,75	1513,45
493,95	1497,07
494,15	1497,07
494,36	1488,87
494,56	1509,35
494,76	1472,49
494,96	1499,11
495,16	1484,78
495,37	1527,78
495,57	1456,11
495,77	1437,67
495,97	1521,64
496,17	1480,68
496,37	1542,12
496,58	1533,93
496,78	1488,87
496,98	1468,39
497,18	1615,85
497,38	1550,31
497,59	1554,41
497,79	1466,35
497,99	1599,46
498,19	1552,36
498,39	1570,79
498,59	1486,83
498,80	1583,08
499,00	1589,22
499,20	1546,22
499,40	1472,49
499,60	1540,07
499,80	1458,15
500,01	1415,15
500,21	1499,11
500,41	1589,22
500,61	1474,54
500,81	1492,97
501,01	1509,35
501,22	1546,22
501,42	1452,01
501,62	1509,35
501,82	1558,50
502,02	1476,59
502,22	1488,87
502,42	1497,07
502,63	1587,18
502,83	1523,69
503,03	1511,40
503,23	1492,97
503,43	1406,95
503,63	1542,12
503,83	1527,78
504,04	1519,59
504,24	1521,64
504,44	1495,02
504,64	1443,82
504,84	1609,70
505,04	1476,59
505,24	1456,11
505,44	1447,91
505,65	1562,60
505,85	1581,03
506,05	1546,22
506,25	1556,46
506,45	1492,97
506,65	1435,63
506,85	1417,19
507,05	1519,59
507,26	1562,60
507,46	1568,74
507,66	1425,39
507,86	1513,45
508,06	1527,78
508,26	1447,91
508,46	1505,26
508,66	1447,91
508,86	1546,22
509,06	1492,97
509,27	1568,74
509,47	1599,46
509,67	1503,21
509,87	1521,64
510,07	1578,98
510,27	1578,98
510,47	1521,64
510,67	1531,88
510,87	1531,88
511,07	1460,20
511,28	1482,73
511,48	1542,12
511,68	1351,66
511,88	1495,02
512,08	1447,91
512,28	1503,21
512,48	1509,35
512,68	1495,02
512,88	1527,78
513,08	1581,03
513,28	1642,47
513,48	1521,64
513,68	1521,64
513,89	1521,64
514,09	1556,46
514,29	1462,25
514,49	1495,02
514,69	1552,36
514,89	1447,91
515,09	1476,59
515,29	1492,97
515,49	1447,91
515,69	1527,78
515,89	1492,97
516,09	1503,21
516,29	1458,15
516,49	1482,73
516,69	1466,35
516,89	1497,07
517,09	1495,02
517,29	1503,21
517,50	1419,24
517,70	1527,78
517,90	1423,34
518,10	1538,02
518,30	1488,87
518,50	1449,96
518,70	1578,98
518,90	1556,46
519,10	1581,03
519,30	1480,68
519,50	1509,35
519,70	1540,07
519,90	1589,22
520,10	1501,16
520,30	1466,35
520,50	1495,02
520,70	1482,73
520,90	1550,31
521,10	1472,49
521,30	1511,40
521,50	1607,66
521,70	1531,88
521,90	1509,35
522,10	1599,46
522,30	1550,31
522,50	1486,83
522,70	1437,67
522,90	1515,50
523,10	1482,73
523,30	1488,87
523,50	1572,84
523,70	1542,12
523,90	1447,91
524,10	1497,07
524,30	1439,72
524,50	1464,30
524,70	1570,79
524,90	1480,68
525,10	1507,30
525,30	1415,15
525,50	1415,15
525,70	1406,95
525,90	1435,63
526,10	1540,07
526,30	1499,11
526,50	1511,40
526,70	1511,40
526,90	1419,24
527,10	1564,65
527,30	1443,82
527,50	1556,46
527,70	1538,02
527,90	1556,46
528,10	1497,07
528,30	1445,87
528,50	1529,83
528,70	1501,16
528,90	1570,79
529,10	1429,48
529,30	1472,49
529,50	1611,75
529,70	1497,07
529,90	1484,78
530,10	1490,92
530,29	1585,13
530,49	1505,26
530,69	1503,21
530,89	1452,01
531,09	1452,01
531,29	1595,37
531,49	1482,73
531,69	1552,36
531,89	1578,98
532,09	1574,89
532,29	1583,08
532,49	1509,35
532,69	1533,93
532,89	1497,07
533,09	1546,22
533,29	1488,87
533,49	1535,98
533,68	1497,07
533,88	1482,73
534,08	1437,67
534,28	1505,26
534,48	1570,79
534,68	1404,91
534,88	1552,36
535,08	1511,40
535,28	1642,47
535,48	1492,97
535,68	1603,56
535,88	1591,27
536,08	1548,26
536,27	1570,79
536,47	1650,66
536,67	1529,83
536,87	1476,59
537,07	1538,02
537,27	1611,75
537,47	1574,89
537,67	1499,11
537,87	1452,01
538,07	1521,64
538,27	1585,13
538,46	1652,71
538,66	1529,83
538,86	1535,98
539,06	1576,94
539,26	1527,78
539,46	1572,84
539,66	1593,32
539,86	1542,12
540,06	1560,55
540,25	1572,84
540,45	1513,45
540,65	1558,50
540,85	1558,50
541,05	1587,18
541,25	1619,94
541,45	1619,94
541,65	1685,48
541,85	1681,38
542,04	1619,94
542,24	1593,32
542,44	1619,94
542,64	1632,23
542,84	1599,46
543,04	1581,03
543,24	1654,76
543,43	1603,56
543,63	1636,33
543,83	1660,90
544,03	1742,82
544,23	1605,61
544,43	1722,34
544,63	1650,66
544,82	1650,66
545,02	1693,67
545,22	1652,71
545,42	1687,53
545,62	1689,57
545,82	1581,03
546,02	1673,19
546,21	1775,59
546,41	1714,15
546,61	1648,61
546,81	1742,82
547,01	1740,77
547,21	1738,73
547,40	1738,73
547,60	1744,87
547,80	1712,10
548,00	1693,67
548,20	1759,21
548,40	1730,53
548,59	1728,49
548,79	1904,61
548,99	1810,40
549,19	1789,92
549,39	1759,21
549,59	1783,78
549,78	1820,64
549,98	1841,12
550,18	1882,08
550,38	1849,32
550,58	1851,36
550,77	1920,99
550,97	1859,56
551,17	1873,89
551,37	1972,19
551,57	1904,61
551,76	1988,58
551,96	1869,80
552,16	2050,02
552,36	1959,91
552,56	1941,47
552,75	1964,00
552,95	1996,77
553,15	2064,35
553,35	2199,52
553,55	2039,78
553,74	2097,12
553,94	2078,69
554,14	2058,21
554,34	2131,94
554,54	2240,48
554,73	2103,26
554,93	2211,81
555,13	2176,99
555,33	2195,42
555,53	2152,42
555,72	2222,05
555,92	2453,47
556,12	2328,54
556,32	2232,29
556,51	2340,83
556,71	2385,88
556,91	2394,08
557,11	2525,15
557,30	2498,52
557,50	2553,82
557,70	2426,84
557,90	2576,34
558,10	2582,49
558,29	2512,86
558,49	2566,10
558,69	2668,50
558,89	2605,02
559,08	2768,85
559,28	2672,60
559,48	2664,41
559,68	2801,62
559,87	2818,00
560,07	2842,58
560,27	2881,49
560,47	2789,33
560,66	2914,26
560,86	2916,31
561,06	3076,05
561,25	3012,56
561,45	3086,29
561,65	3045,33
561,85	3067,86
562,04	3205,07
562,24	3170,26
562,44	3262,41
562,64	3475,40
562,83	3499,98
563,03	3485,64
563,23	3479,50
563,42	3467,21
563,62	3571,66
563,82	3639,24
564,02	3768,26
564,21	3743,69
564,41	3772,36
564,61	3909,57
564,80	3821,51
565,00	4159,42
565,20	4016,07
565,40	4192,19
565,59	4204,48
565,79	4384,70
565,99	4472,76
566,18	4536,25
566,38	4501,44
566,58	4499,39
566,78	4581,31
566,97	4609,98
567,17	4917,17
567,37	4847,54
567,56	4937,65
567,76	4863,93
567,96	4962,23
568,15	5222,32
568,35	5224,37
568,55	5332,91
568,74	5568,43
568,94	5568,43
569,14	5726,12
569,33	5824,42
569,53	5871,53
569,73	6094,76
569,92	6135,71
570,12	6287,26
570,32	6201,25
570,52	6371,23
570,71	6404,00
570,91	6612,89
571,11	6657,95
571,30	6877,08
571,50	6985,62
571,70	7018,39
571,89	7118,74
572,09	7335,82
572,28	7290,77
572,48	7559,05
572,68	7673,74
572,87	7976,84
573,07	8212,35
573,27	8396,67
573,46	8652,67
573,66	8636,28
573,86	9152,37
574,05	9152,37
574,25	9322,35
574,45	9334,64
574,64	9940,84
574,84	10100,58
575,04	10332,00
575,23	10639,20
575,43	10706,78
575,62	10757,98
575,82	11079,51
576,02	11202,39
576,21	11611,98
576,41	11622,22
576,61	12023,62
576,80	12044,10
577,00	12480,32
577,19	12736,32
577,39	13170,49
577,59	13326,13
577,78	13668,14
577,98	14104,36
578,18	14503,71
578,37	14772,00
578,57	14968,60
578,76	15568,66
578,96	15714,06
579,16	15941,39
579,35	16606,98
579,55	16310,02
579,74	16574,21
579,94	17020,67
580,14	17446,65
580,33	18015,98
580,53	18020,08
580,72	18648,80
580,92	19185,37
581,12	19797,71
581,31	20197,07
581,51	20973,25
581,70	20946,62
581,90	21722,80
582,10	21784,24
582,29	22498,98
582,49	22363,82
582,68	23332,51
582,88	23584,41
583,07	24090,26
583,27	24305,29
583,47	24802,95
583,66	25736,82
583,86	25640,57
584,05	26562,15
584,25	26789,48
584,44	27717,21
584,64	28472,91
584,84	29285,95
585,03	29859,38
585,23	30258,74
585,42	30594,61
585,62	31458,85
585,81	32351,76
586,01	33191,43
586,20	33740,29
586,40	34434,55
586,60	34651,63
586,79	35964,38
586,99	36238,81
587,18	37307,85
587,38	37320,13
587,57	37934,53
587,77	38385,08
587,96	39497,13
588,16	39994,78
588,35	41006,48
588,55	41923,97
588,75	42601,85
588,94	43554,15
589,14	44244,32
589,33	44764,50
589,53	46822,71
589,72	46771,51
589,92	48612,63
590,11	48807,19
590,31	49882,37
590,50	50822,39
590,70	51694,83
590,89	52432,10
591,09	53343,44
591,28	53992,65
591,48	54996,15
591,67	55317,68
591,87	57072,79
592,06	57425,04
592,26	58535,04
592,45	58514,56
592,65	59905,13
592,84	60101,74
593,04	60574,82
593,23	61477,97
593,43	61983,82
593,62	62452,81
593,82	62821,44
594,01	62538,82
594,21	63542,33
594,40	63091,77
594,60	63046,72
594,79	63845,43
594,99	63575,09
595,18	64150,57
595,38	63114,30
595,57	62856,26
595,77	63231,04
595,96	62673,99
596,16	62340,17
596,35	60779,62
596,55	60499,04
596,74	60281,96
596,94	59462,77
597,13	58254,47
597,33	57580,69
597,52	55850,16
597,72	55465,14
597,91	55078,07
598,11	53746,89
598,30	52796,63
598,50	52798,68
598,69	51340,53
598,88	50234,63
599,08	48282,91
599,27	47510,83
599,47	45399,37
599,66	44047,71
599,86	42311,03
600,05	41047,44
600,25	39140,78
600,44	37586,37
600,64	36548,05
600,83	35440,10
601,02	34422,26
601,22	33316,36
601,41	31551,01
601,61	30723,63
601,80	29414,98
602,00	28401,23
602,19	26773,10
602,38	25876,09
602,58	24393,36
602,77	23516,83
602,97	23256,73
603,16	22189,74
603,36	20975,30
603,55	20547,27
603,74	19369,69
603,94	18765,54
604,13	17811,18
604,33	17585,91
604,52	16819,97
604,72	16127,75
604,91	15419,16
605,10	15275,80
605,30	14315,30
605,49	14071,59
605,69	13573,94
605,88	13066,04
606,07	12801,85
606,27	12406,59
606,46	11984,71
606,66	11779,92
606,85	11081,56
607,04	10868,57
607,24	10473,31
607,43	10270,56
607,63	9852,78
607,82	9715,56
608,01	9336,69
608,21	9019,25
608,40	8869,75
608,60	8415,10
608,79	8200,07
608,98	7843,72
609,18	7772,04
609,37	7387,02
609,57	7071,64
609,76	6946,71
609,95	6983,57
610,15	6567,84
610,34	6383,52
610,53	6231,97
610,73	5935,01
610,92	5898,15
611,11	5822,38
611,31	5707,69
611,50	5408,69
611,70	5189,55
611,89	5019,57
612,08	5013,43
612,28	4925,36
612,47	4732,86
612,66	4605,88
612,86	4585,40
613,05	4384,70
613,24	4272,06
613,44	4196,29
613,63	4075,46
613,82	3946,44
614,02	3885,00
614,21	3794,89
614,41	3760,07
614,60	3659,72
614,79	3516,36
614,99	3502,03
615,18	3409,87
615,37	3348,43
615,57	3311,57
615,76	3151,82
615,95	3094,48
616,15	3110,86
616,34	3229,65
616,53	3168,21
616,73	2996,18
616,92	2942,93
617,11	2844,63
617,30	2883,54
617,50	2875,35
617,69	2801,62
617,88	2746,33
618,08	2787,29
618,27	2709,46
618,46	2611,16
618,66	2613,21
618,85	2564,06
619,04	2576,34
619,24	2559,96
619,43	2426,84
619,62	2383,84
619,82	2430,94
620,01	2316,25
620,20	2250,72
620,39	2265,05
620,59	2297,82
620,78	2277,34
620,97	2293,72
621,17	2271,20
621,36	2193,37
621,55	2154,46
621,74	2123,74
621,94	2099,17
622,13	2158,56
622,32	2054,11
622,52	2019,30
622,71	2041,82
622,90	2154,46
623,09	1974,24
623,29	2002,91
623,48	1927,14
623,67	1955,81
623,86	2013,15
624,06	1898,47
624,25	1976,29
624,44	2013,15
624,64	1972,19
624,83	1867,75
625,02	1896,42
625,21	1945,57
625,41	1853,41
625,60	1849,32
625,79	1781,73
625,98	1767,40
626,18	1789,92
626,37	1853,41
626,56	1806,31
626,75	1746,92
626,95	1748,97
627,14	1705,96
627,33	1783,78
627,52	1791,97
627,72	1789,92
627,91	1828,84
628,10	1671,14
628,29	1761,25
628,49	1751,01
628,68	1742,82
628,87	1679,33
629,06	1761,25
629,25	1693,67
629,45	1677,29
629,64	1810,40
629,83	1726,44
630,02	1648,61
630,22	1628,14
630,41	1607,66
630,60	1677,29
630,79	1599,46
630,98	1716,20
631,18	1615,85
631,37	1603,56
631,56	1587,18
631,75	1667,05
631,94	1595,37
632,14	1566,70
632,33	1525,74
632,52	1482,73
632,71	2070,50
632,90	1601,51
633,10	1662,95
633,29	1587,18
633,48	1603,56
633,67	1564,65
633,86	1619,94
634,06	1570,79
634,25	1695,72
634,44	1689,57
634,63	1671,14
634,82	1490,92
635,02	1533,93
635,21	1550,31
635,40	1589,22
635,59	1597,42
635,78	1607,66
635,97	1591,27
636,17	1460,20
636,36	1556,46
636,55	1578,98
636,74	1538,02
636,93	1603,56
637,12	1601,51
637,32	1587,18
637,51	1509,35
637,70	1617,90
637,89	1470,44
638,08	1488,87
638,27	1621,99
638,47	1497,07
638,66	1484,78
638,85	1550,31
639,04	1597,42
639,23	1550,31
639,42	1576,94
639,62	1570,79
639,81	1648,61
640,00	1538,02
640,19	1585,13
640,38	1550,31
640,57	1611,75
640,76	1499,11
640,95	1583,08
641,15	1423,34
641,34	1578,98
641,53	1515,50
641,72	1550,31
641,91	1550,31
642,10	1521,64
642,29	1599,46
642,49	1478,63
642,68	1476,59
642,87	1525,74
643,06	1525,74
643,25	1574,89
643,44	1544,17
643,63	1501,16
643,82	1515,50
644,01	1521,64
644,21	1550,31
644,40	1646,57
644,59	1501,16
644,78	1558,50
644,97	1585,13
645,16	1558,50
645,35	1546,22
645,54	1538,02
645,73	1546,22
645,92	1546,22
646,12	1521,64
646,31	1540,07
646,50	1490,92
646,69	1511,40
646,88	1482,73
647,07	1456,11
647,26	1511,40
647,45	1456,11
647,64	1533,93
647,83	1472,49
648,02	1589,22
648,22	1599,46
648,41	1464,30
648,60	1505,26
648,79	1447,91
648,98	1560,55
649,17	1531,88
649,36	1445,87
649,55	1480,68
649,74	1564,65
649,93	1523,69
650,12	1542,12
650,31	1628,14
650,50	1505,26
650,69	1578,98
650,88	1617,90
651,08	1507,30
651,27	1501,16
651,46	1566,70
651,65	1529,83
651,84	1488,87
652,03	1439,72
652,22	1458,15
652,41	1472,49
652,60	1527,78
652,79	1585,13
652,98	1501,16
653,17	1538,02
653,36	1486,83
653,55	1558,50
653,74	1535,98
653,93	1525,74
654,12	1486,83
654,31	1527,78
654,50	1531,88
654,69	1611,75
654,88	1589,22
655,07	1492,97
655,26	1484,78
655,45	1411,05
655,64	1431,53
655,83	1533,93
656,02	1529,83
656,21	1462,25
656,40	1452,01
656,59	1538,02
656,78	1431,53
656,97	1525,74
657,17	1601,51
657,36	1404,91
657,55	1583,08
657,74	1550,31
657,93	1574,89
658,12	1525,74
658,31	1521,64
658,50	1470,44
658,69	1562,60
658,87	1527,78
659,06	1490,92
659,25	1548,26
659,44	1458,15
659,63	1546,22
659,82	1533,93
660,01	1509,35
660,20	1480,68
660,39	1507,30
660,58	1488,87
660,77	1521,64
660,96	1533,93
661,15	1490,92
661,34	1427,43
661,53	1523,69
661,72	1552,36
661,91	1509,35
662,10	1486,83
662,29	1460,20
662,48	1447,91
662,67	1400,81
662,86	1531,88
663,05	1466,35
663,24	1603,56
663,43	1523,69
663,62	1517,54
663,81	1427,43
664,00	1513,45
664,19	1519,59
664,38	1478,63
664,57	1488,87
664,76	1509,35
664,94	1417,19
665,13	1480,68
665,32	1482,73
665,51	1488,87
665,70	1359,85
665,89	1533,93
666,08	1531,88
666,27	1460,20
666,46	1486,83
666,65	1558,50
666,84	1363,95
667,03	1423,34
667,22	1454,06
667,41	1634,28
667,60	1458,15
667,78	1558,50
667,97	1525,74
668,16	1525,74
668,35	1400,81
668,54	1488,87
668,73	1431,53
668,92	1542,12
669,11	1578,98
669,30	1466,35
669,49	1449,96
669,68	1556,46
669,86	1468,39
670,05	1435,63
670,24	1437,67
670,43	1540,07
670,62	1484,78
670,81	1425,39
671,00	1447,91
671,19	1589,22
671,38	1460,20
671,57	1431,53
671,75	1472,49
671,94	1509,35
672,13	1531,88
672,32	1476,59
672,51	1447,91
672,70	1560,55
672,89	1484,78
673,08	1423,34
673,26	1439,72
673,45	1454,06
673,64	1503,21
673,83	1441,77
674,02	1466,35
674,21	1570,79
674,40	1492,97
674,59	1538,02
674,77	1507,30
674,96	1542,12
675,15	1556,46
675,34	1482,73
675,53	1599,46
675,72	1492,97
675,91	1443,82
676,09	1515,50
676,28	1544,17
676,47	1505,26
676,66	1443,82
676,85	1607,66
677,04	1509,35
677,22	1599,46
677,41	1531,88
677,60	1519,59
677,79	1513,45
677,98	1478,63
678,17	1390,57
678,36	1501,16
678,54	1439,72
678,73	1544,17
678,92	1503,21
679,11	1511,40
679,30	1447,91
679,48	1503,21
679,67	1486,83
679,86	1421,29
680,05	1544,17
680,24	1449,96
680,43	1525,74
680,61	1464,30
680,80	1482,73
680,99	1482,73
681,18	1507,30
681,37	1525,74
681,55	1589,22
681,74	1523,69
681,93	1505,26
682,12	1454,06
682,31	1505,26
682,49	1501,16
682,68	1558,50
682,87	1423,34
683,06	1423,34
683,25	1529,83
683,43	1529,83
683,62	1525,74
683,81	1597,42
684,00	1583,08
684,19	1509,35
684,37	1525,74
684,56	1521,64
684,75	1570,79
684,94	1454,06
685,12	1556,46
685,31	1443,82
685,50	1484,78
685,69	1525,74
685,88	1437,67
686,06	1595,37
686,25	1513,45
686,44	1470,44
686,63	1484,78
686,81	1468,39
687,00	1552,36
687,19	1439,72
687,38	1501,16
687,56	1400,81
687,75	1574,89
687,94	1517,54
688,13	1445,87
688,31	1538,02
688,50	1476,59
688,69	1443,82
688,88	1509,35
689,06	1529,83
689,25	1513,45
689,44	1486,83
689,63	1564,65
689,81	1431,53
690,00	1503,21
690,19	1501,16
690,38	1525,74
690,56	1452,01
690,75	1578,98
690,94	1499,11
691,13	1484,78
691,31	1515,50
691,50	1497,07
691,69	1525,74
691,87	1394,67
692,06	1482,73
692,25	1505,26
692,44	1435,63
692,62	1443,82
692,81	1644,52
693,00	1460,20
693,18	1525,74
693,37	1533,93
693,56	1406,95
693,75	1404,91
693,93	1509,35
694,12	1523,69
694,31	1540,07
694,49	1458,15
694,68	1462,25
694,87	1452,01
695,05	1458,15
695,24	1480,68
695,43	1454,06
695,62	1439,72
695,80	1517,54
695,99	1519,59
696,18	1439,72
696,36	1556,46
696,55	1470,44
696,74	1411,05
696,92	1517,54
697,11	1492,97
697,30	1562,60
697,48	1484,78
697,67	1454,06
697,86	1435,63
698,04	1382,38
698,23	1439,72
698,42	1515,50
698,60	1441,77
698,79	1490,92
698,98	1515,50
699,16	1468,39
699,35	1458,15
699,54	1538,02
699,72	1507,30
699,91	1595,37
700,10	1482,73
700,28	1476,59
700,47	1615,85
700,66	1525,74
700,84	1521,64
701,03	1472,49
701,21	1488,87
701,40	1466,35
701,59	1505,26
701,77	1449,96
701,96	1460,20
702,15	1460,20
702,33	1509,35
702,52	1437,67
702,71	1550,31
702,89	1456,11
703,08	1548,26
703,26	1529,83
703,45	1533,93
703,64	1517,54
703,82	1519,59
704,01	1505,26
704,20	1515,50
704,38	1538,02
704,57	1486,83
704,75	1456,11
704,94	1482,73
705,13	1474,54
705,31	1531,88
705,50	1429,48
705,68	1564,65
705,87	1519,59
706,06	1552,36
706,24	1429,48
706,43	1415,15
706,61	1466,35
706,80	1460,20
706,99	1587,18
707,17	1544,17
707,36	1484,78
707,54	1544,17
707,73	1480,68
707,92	1529,83
708,10	1460,20
708,29	1490,92
708,47	1462,25
708,66	1554,41
708,84	1480,68
709,03	1517,54
709,22	1525,74
709,40	1507,30
709,59	1615,85
709,77	1535,98
709,96	1632,23
710,14	1437,67
710,33	1533,93
710,52	1523,69
710,70	1513,45
710,89	1507,30
711,07	1550,31
711,26	1495,02
711,44	1501,16
711,63	1517,54
711,81	1478,63
712,00	1490,92
712,19	1456,11
712,37	1570,79
712,56	1472,49
712,74	1431,53
712,93	1560,55
713,11	1497,07
713,30	1484,78
713,48	1490,92
713,67	1486,83
713,85	1533,93
714,04	1533,93
714,22	1501,16
714,41	1486,83
714,59	1476,59
714,78	1404,91
714,97	1482,73
715,15	1480,68
715,34	1495,02
715,52	1478,63
715,71	1501,16
715,89	1478,63
716,08	1499,11
716,26	1468,39
716,45	1443,82
716,63	1488,87
716,82	1474,54
717,00	1482,73
717,19	1609,70
717,37	1478,63
717,56	1515,50
717,74	1505,26
717,93	1521,64
718,11	1550,31
718,30	1452,01
718,48	1462,25
718,67	1560,55
718,85	1452,01
719,04	1449,96
719,22	1447,91
719,41	1554,41
719,59	1607,66
719,78	1492,97
719,96	1499,11
720,15	1538,02
720,33	1546,22
720,52	1538,02
720,70	1449,96
720,88	1564,65
721,07	1460,20
721,25	1490,92
721,44	1458,15
721,62	1529,83
721,81	1449,96
721,99	1404,91
722,18	1447,91
722,36	1511,40
722,55	1447,91
722,73	1488,87
722,92	1515,50
723,10	1409,00
723,28	1521,64
723,47	1542,12
723,65	1523,69
723,84	1492,97
724,02	1447,91
724,21	1472,49
724,39	1423,34
724,58	1468,39
724,76	1488,87
724,94	1464,30
725,13	1552,36
725,31	1443,82
725,50	1554,41
725,68	1511,40
725,87	1468,39
726,05	1515,50
726,23	1458,15
726,42	1521,64
726,60	1415,15
726,79	1492,97
726,97	1445,87
727,16	1552,36
727,34	1484,78
727,52	1464,30
727,71	1533,93
727,89	1515,50
728,08	1466,35
728,26	1550,31
728,44	1470,44
728,63	1574,89
728,81	1511,40
729,00	1466,35
729,18	1515,50
729,36	1511,40
729,55	1449,96
729,73	1574,89
729,92	1497,07
730,10	1476,59
730,28	1409,00
730,47	1511,40
730,65	1480,68
730,84	1556,46
731,02	1409,00
731,20	1591,27
731,39	1533,93
731,57	1546,22
731,75	1486,83
731,94	1456,11
732,12	1527,78
732,31	1519,59
732,49	1460,20
732,67	1441,77
732,86	1384,43
733,04	1505,26
733,22	1449,96
733,41	1431,53
733,59	1449,96
733,78	1503,21
733,96	1531,88
734,14	1353,71
734,33	1492,97
734,51	1472,49
734,69	1511,40
734,88	1484,78
735,06	1468,39
735,24	1513,45
735,43	1556,46
735,61	1507,30
735,79	1581,03
735,98	1480,68
736,16	1517,54
736,34	1488,87
736,53	1519,59
736,71	1517,54
736,89	1460,20
737,08	1503,21
737,26	1497,07
737,44	1439,72
737,63	1499,11
737,81	1413,10
737,99	1490,92
738,18	1486,83
738,36	1570,79
738,54	1517,54
738,73	1523,69
738,91	1566,70
739,09	1507,30
739,28	1460,20
739,46	1505,26
739,64	1556,46
739,82	1492,97
740,01	1449,96
740,19	1581,03
740,37	1490,92
740,56	1429,48
740,74	1445,87
740,92	1529,83
741,11	1402,86
741,29	1484,78
741,47	1609,70
741,65	1478,63
741,84	1476,59
742,02	1548,26
742,20	1507,30
742,39	1452,01
742,57	1492,97
742,75	1466,35
742,93	1411,05
743,12	1478,63
743,30	1474,54
743,48	1488,87
743,67	1492,97
743,85	1458,15
744,03	1527,78
744,21	1445,87
744,40	1431,53
744,58	1505,26
744,76	1511,40
744,94	1488,87
745,13	1513,45
745,31	1458,15
745,49	1517,54
745,67	1484,78
745,86	1525,74
746,04	1478,63
746,22	1447,91
746,40	1452,01
746,59	1443,82
746,77	1521,64
746,95	1556,46
747,13	1480,68
747,32	1492,97
747,50	1447,91
747,68	1480,68
747,86	1503,21
748,05	1497,07
748,23	1482,73
748,41	1538,02
748,59	1361,90
748,77	1488,87
748,96	1413,10
749,14	1454,06
749,32	1529,83
749,50	1562,60
749,69	1515,50
749,87	1574,89
750,05	1544,17
750,23	1476,59
750,41	1421,29
750,60	1484,78
750,78	1464,30
750,96	1527,78
751,14	1460,20
751,32	1505,26
751,51	1411,05
751,69	1454,06
751,87	1443,82
752,05	1472,49
752,23	1511,40
752,42	1523,69
752,60	1501,16
752,78	1533,93
752,96	1470,44
753,14	1466,35
753,33	1445,87
753,51	1554,41
753,69	1468,39
753,87	1480,68
754,05	1486,83
754,23	1546,22
754,42	1427,43
754,60	1505,26
754,78	1574,89
754,96	1417,19
755,14	1470,44
755,32	1513,45
755,51	1447,91
755,69	1499,11
755,87	1490,92
756,05	1411,05
756,23	1447,91
756,41	1521,64
756,60	1472,49
756,78	1474,54
756,96	1443,82
757,14	1437,67
757,32	1505,26
757,50	1566,70
757,68	1441,77
757,87	1441,77
758,05	1497,07
758,23	1484,78
758,41	1574,89
758,59	1501,16
758,77	1554,41
758,95	1552,36
759,14	1521,64
759,32	1529,83
759,50	1482,73
759,68	1464,30
759,86	1415,15
760,04	1488,87
760,22	1515,50
760,40	1634,28
760,59	1568,74
760,77	1533,93
760,95	1437,67
761,13	1437,67
761,31	1560,55
761,49	1593,32
761,67	1652,71
761,85	1384,43
762,03	1417,19
762,22	1558,50
762,40	1464,30
762,58	1445,87
762,76	1474,54
762,94	1497,07
763,12	1548,26
763,30	1497,07
763,48	1513,45
763,66	1452,01
763,84	1480,68
764,02	1464,30
764,21	1466,35
764,39	1636,33
764,57	1566,70
764,75	1515,50
764,93	1587,18
765,11	1466,35
765,29	1615,85
765,47	1501,16
765,65	1435,63
765,83	1439,72
766,01	1517,54
766,19	1558,50
766,37	1570,79
766,56	1501,16
766,74	1501,16
766,92	1433,58
767,10	1505,26
767,28	1490,92
767,46	1441,77
767,64	1478,63
767,82	1544,17
768,00	1458,15
768,18	1460,20
768,36	1531,88
768,54	1515,50
768,72	1595,37
768,90	1413,10
769,08	1464,30
769,26	1525,74
769,44	1468,39
769,62	1509,35
769,80	1542,12
769,98	1544,17
770,16	1515,50
770,34	1484,78
770,52	1443,82
770,71	1441,77
770,89	1484,78
771,07	1595,37
771,25	1474,54
771,43	1538,02
771,61	1468,39
771,79	1423,34
771,97	1503,21
772,15	1546,22
772,33	1429,48
772,51	1566,70
772,69	1435,63
772,87	1449,96
773,05	1611,75
773,23	1583,08
773,41	1359,85
773,59	1554,41
773,77	1511,40
773,95	1521,64
774,13	1497,07
774,31	1572,84
774,49	1445,87
774,67	1515,50
774,85	1492,97
775,03	1447,91
775,21	1546,22
775,39	1452,01
775,57	1497,07
775,75	1505,26
775,93	1449,96
776,10	1454,06
776,28	1503,21
776,46	1546,22
776,64	1527,78
776,82	1343,47
777,00	2596,82
777,18	1464,30
777,36	1495,02
777,54	1507,30
777,72	1437,67
777,90	1531,88
778,08	1480,68
778,26	1452,01
778,44	1497,07
778,62	1558,50
778,80	1578,98
778,98	1509,35
779,16	1398,76
779,34	1529,83
779,52	1435,63
779,70	1519,59
779,88	1419,24
780,05	1419,24
780,23	1490,92
780,41	1478,63
780,59	1507,30
780,77	1505,26
780,95	1552,36
781,13	1509,35
781,31	1511,40
781,49	1482,73
781,67	1503,21
781,85	1413,10
782,03	1486,83
782,21	1478,63
782,39	1533,93
782,56	1443,82
782,74	1482,73
782,92	1382,38
783,10	1601,51
783,28	1503,21
783,46	1456,11
783,64	1607,66
783,82	1515,50
784,00	1540,07
784,18	1482,73
784,35	1452,01
784,53	1464,30
784,71	1474,54
784,89	1550,31
785,07	1472,49
785,25	1513,45
785,43	1554,41
785,61	1488,87
785,79	1439,72
785,96	1533,93
786,14	1462,25
786,32	1439,72
786,50	1523,69
786,68	1437,67
786,86	1439,72
787,04	1538,02
787,22	1396,71
787,39	1490,92
787,57	1419,24
787,75	1490,92
787,93	1505,26
788,11	1402,86
788,29	1505,26
788,47	1517,54
788,65	1511,40
788,82	1456,11
789,00	1525,74
789,18	1476,59
789,36	1443,82
789,54	1495,02
789,72	1421,29
789,89	1486,83
790,07	1490,92
790,25	1521,64
790,43	1554,41
790,61	1546,22
790,79	1486,83
790,96	1507,30
791,14	1574,89
791,32	1427,43
791,50	1527,78
791,68	1529,83
791,86	1476,59
792,03	1538,02
792,21	1478,63
792,39	1480,68
792,57	1462,25
792,75	1392,62
792,93	1449,96
793,10	1501,16
793,28	1460,20
793,46	1515,50
793,64	1540,07
793,82	1525,74
793,99	1540,07
794,17	1357,80
794,35	1525,74
794,53	1464,30
794,71	1433,58
794,88	1435,63
795,06	1511,40
795,24	1409,00
795,42	1458,15
795,60	1503,21
795,77	1449,96
795,95	1456,11
796,13	1503,21
796,31	1564,65
796,49	1560,55
796,66	1533,93
796,84	1488,87
797,02	1554,41
797,20	1529,83
797,37	1533,93
797,55	1388,52
797,73	1437,67
797,91	1406,95
798,08	1515,50
798,26	1507,30
798,44	1468,39
798,62	1429,48
798,80	1452,01
798,97	1447,91
799,15	1499,11
799,33	1611,75
799,51	1470,44
799,68	1476,59
799,86	1466,35
800,04	1527,78
800,22	1542,12
800,39	1472,49
800,57	1578,98
800,75	1497,07
800,93	1409,00
801,10	1533,93
801,28	1523,69
801,46	1542,12
801,63	1492,97
801,81	1458,15
801,99	1464,30
802,17	1464,30
802,34	1447,91
802,52	1419,24
802,70	1540,07
802,88	1519,59
803,05	1517,54
803,23	1519,59
803,41	1470,44
803,58	1497,07
803,76	1587,18
803,94	1509,35
804,12	1488,87
804,29	1472,49
804,47	1546,22
804,65	1480,68
804,82	1480,68
805,00	1497,07
805,18	1488,87
805,35	1413,10
805,53	1517,54
805,71	1464,30
805,89	1462,25
806,06	1525,74
806,24	1464,30
806,42	1443,82
806,59	1492,97
806,77	1572,84
806,95	1501,16
807,12	1519,59
807,30	1492,97
807,48	1517,54
807,65	1456,11
807,83	1492,97
808,01	1484,78
808,18	1452,01
808,36	1548,26
808,54	1402,86
808,71	1507,30
808,89	1480,68
809,07	1531,88
809,24	1509,35
809,42	1529,83
809,60	1464,30
809,77	1529,83
809,95	1542,12
810,13	1480,68
810,30	1542,12
810,48	1538,02
810,66	1466,35
810,83	1578,98
811,01	1499,11
811,18	1517,54
811,36	1462,25
811,54	1472,49
811,71	1456,11
811,89	1556,46
812,07	1419,24
812,24	1619,94
812,42	1443,82
812,59	1497,07
812,77	1484,78
812,95	1478,63
813,12	1542,12
813,30	1462,25
813,48	1470,44
813,65	1578,98
813,83	1531,88
814,00	1472,49
814,18	1542,12
814,36	1464,30
814,53	1531,88
814,71	1519,59
814,88	1515,50
815,06	1452,01
815,24	1554,41
815,41	1476,59
815,59	1492,97
815,76	1521,64
815,94	1574,89
816,12	1456,11
816,29	1507,30
816,47	1542,12
816,64	1497,07
816,82	1437,67
817,00	1558,50
817,17	1470,44
817,35	1566,70
817,52	1480,68
817,70	1415,15
817,87	1574,89
818,05	1497,07
818,23	1517,54
818,40	1544,17
818,58	1583,08
818,75	1503,21
818,93	1497,07
819,10	1515,50
819,28	1404,91
819,46	1468,39
819,63	1406,95
819,81	1591,27
819,98	1468,39
820,16	1484,78
820,33	1490,92
820,51	1538,02
820,68	1501,16
820,86	1546,22
821,03	1542,12
821,21	1482,73
821,39	1583,08
821,56	1421,29
821,74	1474,54
821,91	1468,39
822,09	1413,10
822,26	1411,05
822,44	1421,29
822,61	1472,49
822,79	1558,50
822,96	1468,39
823,14	1449,96
823,31	1472,49
823,49	1542,12
823,66	1556,46
823,84	1480,68
824,01	1490,92
824,19	1460,20
824,36	1515,50
824,54	1476,59
824,71	1486,83
824,89	1515,50
825,06	1525,74
825,24	1521,64
825,41	1505,26
825,59	1490,92
825,76	1505,26
825,94	1431,53
826,11	1554,41
826,29	1542,12
826,46	1535,98
826,64	1570,79
826,81	1484,78
826,99	1546,22
827,16	1456,11
827,34	1492,97
827,51	1488,87
827,69	1599,46
827,86	1535,98
828,04	1515,50
828,21	1511,40
828,39	1566,70
828,56	1497,07
828,74	1538,02
828,91	1497,07
829,09	1619,94
829,26	1486,83
829,43	1531,88
829,61	1464,30
829,78	1488,87
829,96	1558,50
830,13	1433,58
830,31	1466,35
830,48	1482,73
830,66	1443,82
830,83	1406,95
831,01	1466,35
831,18	1464,30
831,35	1427,43
831,53	1533,93
831,70	1476,59
831,88	1558,50
832,05	1533,93
832,23	1501,16
832,40	1568,74
832,57	1507,30
832,75	1441,77
832,92	1546,22
833,10	1595,37
833,27	1558,50
833,45	1546,22
833,62	1546,22
833,79	1513,45
833,97	1521,64
834,14	1578,98
834,32	1519,59
834,49	1462,25
834,66	1472,49
834,84	1492,97
835,01	1638,38
835,19	1495,02
835,36	1441,77
835,53	1615,85
835,71	1552,36
835,88	1529,83
836,06	1533,93
836,23	1507,30
836,40	1533,93
836,58	1441,77
836,75	1490,92
836,93	1505,26
837,10	1554,41
837,27	1517,54
837,45	1538,02
837,62	1456,11
837,79	1458,15
837,97	1519,59
838,14	1490,92
838,32	1490,92
838,49	1470,44
838,66	1501,16
838,84	1552,36
839,01	1531,88
839,18	1460,20
839,36	1445,87
839,53	1470,44
839,70	1505,26
839,88	1554,41
840,05	1531,88
840,23	1456,11
840,40	1490,92
840,57	1497,07
840,75	1513,45
840,92	1540,07
841,09	1554,41
841,27	1509,35
841,44	1449,96
841,61	1513,45
841,79	1437,67
841,96	1499,11
842,13	1478,63
842,31	1468,39
842,48	1460,20
842,65	1482,73
842,83	1433,58
843,00	1574,89
843,17	1439,72
843,35	1533,93
843,52	1495,02
843,69	1605,61
843,86	1443,82
844,04	1462,25
844,21	1437,67
844,38	1466,35
844,56	1505,26
844,73	1521,64
844,90	1529,83
845,08	1535,98
845,25	1445,87
845,42	1513,45
845,60	1556,46
845,77	1589,22
845,94	1466,35
846,11	1443,82
846,29	1521,64
846,46	1499,11
846,63	1507,30
846,81	1546,22
846,98	1460,20
847,15	1495,02
847,32	1476,59
847,50	1497,07
847,67	1492,97
847,84	1470,44
848,01	1525,74
848,19	1507,30
848,36	1464,30
848,53	1406,95
848,71	1540,07
848,88	1472,49
849,05	1445,87
849,22	1476,59
849,40	1468,39
849,57	1503,21
849,74	1490,92
849,91	1482,73
850,09	1511,40
850,26	1497,07
850,43	1472,49
850,60	1474,54
850,78	1531,88
850,95	1488,87
851,12	1488,87
851,29	1480,68
851,47	1566,70
851,64	1558,50
851,81	1480,68
851,98	1499,11
852,15	1599,46
852,33	1417,19
852,50	1466,35
852,67	1490,92
852,84	1546,22
853,02	1542,12
853,19	1546,22
853,36	1468,39
853,53	1386,47
853,70	1548,26
853,88	1558,50
854,05	1513,45
854,22	1435,63
854,39	1495,02
854,56	1513,45
854,74	1433,58
854,91	1521,64
855,08	1406,95
855,25	1505,26
855,42	1468,39
855,60	1449,96
855,77	1529,83
855,94	1640,42
856,11	1478,63
856,28	1437,67
856,46	1570,79
856,63	1433,58
856,80	1495,02
856,97	1591,27
857,14	1583,08
857,31	1472,49
857,49	1466,35
857,66	1513,45
857,83	1478,63
858,00	1495,02
858,17	1546,22
858,34	1470,44
858,52	1490,92
858,69	1538,02
858,86	1529,83
859,03	1484,78
859,20	1531,88
859,37	1490,92
859,55	1476,59
859,72	1503,21
859,89	1466,35
860,06	1611,75
860,23	1546,22
860,40	1390,57
860,57	1523,69
860,75	1466,35
860,92	1523,69
861,09	1515,50
861,26	1595,37
861,43	1527,78
861,60	1464,30
861,77	1476,59
861,95	1486,83
862,12	1499,11
862,29	1441,77
862,46	1515,50
862,63	1560,55
862,80	1519,59
862,97	1558,50
863,14	1488,87
863,31	1517,54
863,49	1513,45
863,66	1509,35
863,83	1583,08
864,00	1515,50
864,17	1452,01
864,34	1583,08
864,51	1425,39
864,68	1521,64
864,85	1501,16
865,02	1519,59
865,20	1552,36
865,37	1501,16
865,54	1470,44
865,71	1490,92
865,88	1454,06
866,05	1480,68
866,22	1523,69
866,39	1497,07
866,56	1546,22
866,73	1456,11
866,90	1652,71
867,07	1490,92
867,25	1443,82
867,42	1538,02
867,59	1495,02
867,76	1554,41
867,93	1495,02
868,10	1597,42
868,27	1587,18
868,44	1523,69
868,61	1533,93
868,78	1503,21
868,95	1452,01
869,12	1523,69
869,29	1478,63
869,46	1546,22
869,63	1564,65
869,80	1429,48
869,97	1605,61
870,14	1542,12
870,32	1529,83
870,49	1499,11
870,66	1531,88
870,83	1527,78
871,00	1460,20
871,17	1499,11
871,34	1546,22
871,51	1478,63
871,68	1452,01
871,85	1482,73
872,02	1615,85
872,19	1570,79
872,36	1497,07
872,53	1513,45
872,70	1513,45
872,87	1409,00
873,04	1417,19
873,21	1486,83
873,38	1452,01
873,55	1554,41
873,72	1544,17
873,89	1497,07
874,06	1435,63
874,23	1366,00
874,40	1499,11
874,57	1472,49
874,74	1578,98
874,91	1472,49
875,08	1482,73
875,25	1550,31
875,42	1525,74
875,59	1499,11
875,76	1513,45
875,93	1527,78
876,10	1513,45
876,27	1480,68
876,44	1587,18
876,61	1482,73
876,78	1517,54
876,95	1515,50
877,12	1529,83
877,29	1564,65
877,46	1454,06
877,62	1572,84
877,79	1470,44
877,96	1478,63
878,13	1497,07
878,30	1472,49
878,47	1603,56
878,64	1509,35
878,81	1458,15
878,98	1497,07
879,15	1564,65
879,32	1533,93
879,49	1474,54
879,66	1564,65
879,83	1519,59
880,00	1478,63
880,17	1525,74
880,34	1527,78
880,51	1443,82
880,67	1556,46
880,84	1413,10
881,01	1437,67
881,18	1599,46
881,35	1544,17
881,52	1578,98
881,69	1484,78
881,86	1605,61
882,03	1484,78
882,20	1478,63
882,37	1497,07
882,54	1566,70
882,70	1509,35
882,87	1386,47
883,04	1601,51
883,21	1568,74
883,38	1470,44
883,55	1464,30
883,72	1413,10
883,89	1431,53
884,06	1445,87
884,23	1429,48
884,39	1495,02
884,56	1529,83
884,73	1515,50
884,90	1480,68
885,07	1533,93
885,24	1519,59
885,41	1654,76
885,58	1462,25
885,74	1452,01
885,91	1585,13
886,08	1517,54
886,25	1470,44
886,42	1527,78
886,59	1542,12
886,76	1439,72
886,93	1466,35
887,09	1515,50
887,26	1576,94
887,43	1505,26
887,60	1480,68
887,77	1513,45
887,94	1538,02
888,10	1589,22
888,27	1576,94
888,44	1497,07
888,61	1476,59
888,78	1447,91
888,95	1558,50
889,12	1396,71
889,28	1538,02
889,45	1433,58
889,62	1415,15
889,79	1484,78
889,96	1529,83
890,13	1503,21
890,29	1513,45
890,46	1589,22
890,63	1525,74
890,80	1423,34
890,97	1445,87
891,13	1447,91
891,30	1544,17
891,47	1550,31
891,64	1470,44
891,81	1568,74
891,98	1507,30
892,14	1490,92
892,31	1400,81
892,48	1462,25
892,65	1425,39
892,82	1480,68
892,98	1452,01
893,15	1525,74
893,32	1566,70
>>>>>End Processed Spectral Data<<<<<
