SpectraSuite Datei
++++++++++++++++++++++++++++++++++++
Datum: Thu Mar 09 10:05:07 CET 2017
Benutzer: Admin
Dark-Spektrum vorhanden: Nein
Referenz-Spektrum vorhanden: Nein
Zahl der probierten Teilspektren: 1
Spektrometer: USB4F05832
Integrationszeit (usec): 100000 (USB4F05832)
Spektren Durchschnitt berechnet: 10 (USB4F05832)
Boxcar Glättung: 0 (USB4F05832)
Dunkelstromkorrektur: Nein (USB4F05832)
Puls/Lampe aktiviert: Nein (USB4F05832)
Correct for Detector Non-linearity: Nein (USB4F05832)
Streulichtkorrektur: Nein (USB4F05832)
Anzahl Pixel in verarbeitetem Spektrum: 3648
>>>>>Begin Processed Spectral Data<<<<<
177,54	1315,21
177,75	1315,21
177,97	1315,21
178,19	1305,38
178,41	1331,79
178,63	1500,34
178,85	1396,71
179,07	1410,64
179,29	1469,62
179,51	1385,66
179,73	1461,23
179,95	1437,47
180,17	1437,06
180,39	1482,93
180,61	1453,85
180,83	1503,00
181,05	1416,99
181,27	1467,37
181,49	1448,32
181,71	1469,01
181,92	1576,73
182,14	1468,80
182,36	1457,33
182,58	1520,82
182,80	1488,46
183,02	1563,42
183,24	1559,73
183,46	1491,95
183,68	1463,68
183,90	1499,11
184,12	1440,13
184,34	1518,77
184,56	1446,48
184,78	1441,36
185,00	1473,92
185,21	1545,81
185,43	1457,13
185,65	1479,86
185,87	1464,50
186,09	1570,38
186,31	1478,22
186,53	1479,25
186,75	1494,61
186,97	1537,82
187,19	1558,09
187,41	1425,18
187,63	1536,59
187,84	1457,74
188,06	1521,64
188,28	1485,19
188,50	1522,87
188,72	1550,52
188,94	1531,06
189,16	1477,00
189,38	1490,92
189,60	1508,53
189,82	1495,02
190,03	1523,89
190,25	1475,36
190,47	1524,10
190,69	1498,09
190,91	1472,90
191,13	1509,15
191,35	1555,84
191,57	1484,98
191,79	1503,41
192,01	1514,06
192,22	1512,63
192,44	1493,38
192,66	1505,05
192,88	1526,56
193,10	1479,86
193,32	1467,57
193,54	1566,90
193,76	1563,62
193,98	1468,39
194,19	1526,15
194,41	1461,43
194,63	1461,84
194,85	1466,76
195,07	1540,28
195,29	1442,38
195,51	1529,42
195,73	1470,44
195,94	1479,66
196,16	1482,32
196,38	1563,83
196,60	1455,70
196,82	1473,92
197,04	1489,28
197,26	1440,95
197,48	1466,76
197,69	1488,67
197,91	1449,96
198,13	1472,28
198,35	1479,86
198,57	1479,86
198,79	1541,92
199,01	1539,25
199,22	1486,62
199,44	1554,61
199,66	1483,34
199,88	1495,43
200,10	1540,69
200,32	1524,30
200,54	1515,09
200,75	1551,54
200,97	1455,70
201,19	1548,26
201,41	1533,31
201,63	1487,03
201,85	1455,08
202,06	1518,36
202,28	1474,13
202,50	1511,40
202,72	1425,59
202,94	1444,84
203,16	1478,02
203,38	1485,60
203,59	1507,51
203,81	1535,77
204,03	1440,34
204,25	1499,32
204,47	1570,79
204,69	1516,52
204,90	1482,52
205,12	1493,38
205,34	1516,52
205,56	1505,87
205,78	1465,53
206,00	1587,79
206,21	1540,28
206,43	1470,44
206,65	1509,56
206,87	1481,91
207,09	1532,50
207,30	1446,07
207,52	1503,41
207,74	1498,29
207,96	1464,91
208,18	1473,10
208,40	1479,66
208,61	1469,83
208,83	1503,00
209,05	1433,58
209,27	1437,67
209,49	1540,48
209,70	1512,02
209,92	1527,17
210,14	1460,61
210,36	1489,28
210,58	1500,14
210,79	1493,38
211,01	1439,11
211,23	1524,92
211,45	1518,57
211,67	1525,74
211,88	1441,16
212,10	1529,63
212,32	1464,09
212,54	1484,57
212,76	1458,77
212,97	1456,72
213,19	1447,91
213,41	1527,99
213,63	1461,84
213,85	1492,56
214,06	1433,58
214,28	1552,57
214,50	1489,28
214,72	1484,16
214,94	1514,68
215,15	1472,69
215,37	1469,42
215,59	1464,50
215,81	1515,91
216,02	1514,47
216,24	1532,90
216,46	1452,01
216,68	1495,84
216,90	1503,21
217,11	1538,64
217,33	1457,74
217,55	1538,23
217,77	1536,80
217,98	1544,17
218,20	1495,43
218,42	1544,17
218,64	1508,53
218,85	1554,82
219,07	1521,85
219,29	1503,00
219,51	1529,63
219,73	1475,56
219,94	1518,36
220,16	1560,35
220,38	1524,30
220,60	1503,41
220,81	1430,30
221,03	1445,25
221,25	1514,27
221,47	1425,80
221,68	1505,46
221,90	1510,79
222,12	1511,81
222,34	1480,68
222,55	1535,36
222,77	1547,85
222,99	1501,16
223,21	1506,69
223,42	1532,90
223,64	1524,30
223,86	1475,15
224,08	1493,79
224,29	1557,69
224,51	1493,38
224,73	1495,02
224,94	1505,87
225,16	1485,39
225,38	1465,94
225,60	1511,40
225,81	1480,68
226,03	1495,84
226,25	1441,77
226,47	1528,60
226,68	1499,11
226,90	1505,67
227,12	1524,92
227,33	1514,27
227,55	1475,77
227,77	1468,19
227,99	1571,41
228,20	1504,85
228,42	1528,81
228,64	1498,09
228,86	1494,81
229,07	1510,38
229,29	1455,70
229,51	1424,57
229,72	1536,18
229,94	1488,67
230,16	1520,82
230,38	1464,50
230,59	1486,21
230,81	1555,02
231,03	1520,41
231,24	1481,71
231,46	1465,53
231,68	1491,95
231,89	1471,67
232,11	1480,07
232,33	1547,04
232,55	1490,92
232,76	1524,71
232,98	1484,57
233,20	1466,76
233,41	1451,40
233,63	1498,29
233,85	1470,03
234,06	1495,43
234,28	1536,59
234,50	1426,21
234,71	1499,52
234,93	1561,78
235,15	1520,41
235,37	1457,74
235,58	1497,88
235,80	1453,24
236,02	1463,68
236,23	1519,59
236,45	1481,30
236,67	1533,52
236,88	1488,05
237,10	1534,75
237,32	1558,09
237,53	1492,97
237,75	1508,74
237,97	1442,59
238,18	1477,81
238,40	1513,65
238,62	1471,88
238,83	1487,64
239,05	1468,39
239,27	1492,56
239,48	1452,42
239,70	1492,76
239,92	1555,43
240,13	1556,25
240,35	1480,27
240,57	1498,29
240,78	1519,80
241,00	1453,03
241,22	1479,45
241,43	1551,75
241,65	1477,61
241,87	1553,38
242,08	1588,61
242,30	1463,07
242,52	1490,10
242,73	1523,69
242,95	1493,58
243,16	1509,35
243,38	1571,00
243,60	1528,19
243,81	1523,28
244,03	1536,59
244,25	1444,84
244,46	1487,44
244,68	1485,80
244,90	1494,40
245,11	1434,19
245,33	1485,19
245,55	1493,58
245,76	1496,86
245,98	1482,32
246,19	1571,61
246,41	1572,64
246,63	1525,33
246,84	1539,25
247,06	1508,74
247,28	1509,76
247,49	1518,36
247,71	1458,97
247,92	1553,59
248,14	1538,02
248,36	1535,57
248,57	1549,70
248,79	1541,71
249,01	1483,34
249,22	1497,07
249,44	1507,71
249,65	1480,89
249,87	1526,97
250,09	1527,78
250,30	1508,94
250,52	1503,41
250,73	1540,28
250,95	1475,97
251,17	1518,36
251,38	1492,15
251,60	1476,79
251,81	1544,17
252,03	1578,57
252,25	1430,30
252,46	1485,60
252,68	1543,14
252,89	1534,13
253,11	1508,53
253,33	1525,33
253,54	1426,62
253,76	1522,05
253,97	1521,44
254,19	1524,10
254,41	1461,64
254,62	1553,59
254,84	1511,61
255,05	1508,53
255,27	1557,07
255,49	1565,06
255,70	1530,86
255,92	1479,45
256,13	1477,40
256,35	1516,11
256,56	1543,55
256,78	1546,63
257,00	1532,70
257,21	1492,97
257,43	1475,36
257,64	1529,01
257,86	1534,75
258,08	1512,42
258,29	1589,43
258,51	1487,23
258,72	1538,02
258,94	1560,55
259,15	1511,61
259,37	1491,74
259,59	1462,04
259,80	1535,36
260,02	1465,53
260,23	1519,18
260,45	1448,53
260,66	1544,78
260,88	1482,93
261,09	1504,23
261,31	1504,03
261,53	1536,39
261,74	1536,39
261,96	1441,77
262,17	1453,44
262,39	1491,95
262,60	1467,37
262,82	1503,21
263,03	1485,39
263,25	1529,42
263,46	1490,92
263,68	1489,28
263,90	1509,97
264,11	1453,03
264,33	1540,28
264,54	1532,09
264,76	1488,46
264,97	1540,28
265,19	1466,55
265,40	1552,77
265,62	1507,51
265,83	1527,78
266,05	1501,37
266,26	1488,67
266,48	1561,58
266,70	1583,08
266,91	1454,06
267,13	1533,11
267,34	1487,64
267,56	1543,96
267,77	1505,67
267,99	1486,62
268,20	1566,90
268,42	1508,74
268,63	1456,92
268,85	1597,01
269,06	1530,65
269,28	1529,83
269,49	1502,19
269,71	1534,75
269,92	1484,57
270,14	1486,42
270,35	1504,85
270,57	1529,83
270,78	1489,69
271,00	1520,82
271,21	1588,40
271,43	1487,23
271,64	1497,88
271,86	1550,31
272,07	1451,81
272,29	1561,78
272,50	1462,66
272,72	1553,18
272,93	1553,18
273,15	1559,53
273,36	1533,31
273,58	1516,73
273,79	1495,02
274,01	1528,40
274,22	1480,27
274,44	1501,78
274,65	1520,41
274,87	1537,00
275,08	1538,64
275,30	1521,85
275,51	1613,80
275,73	1586,97
275,94	1492,97
276,16	1478,02
276,37	1486,21
276,59	1513,86
276,80	1475,77
277,02	1520,82
277,23	1503,82
277,45	1514,47
277,66	1468,39
277,88	1533,11
278,09	1588,20
278,30	1550,72
278,52	1472,28
278,73	1621,58
278,95	1533,93
279,16	1587,99
279,38	1532,09
279,59	1515,91
279,81	1471,67
280,02	1514,06
280,24	1473,51
280,45	1531,68
280,67	1561,99
280,88	1562,40
281,09	1491,54
281,31	1483,14
281,52	1526,35
281,74	1592,71
281,95	1507,51
282,17	1504,23
282,38	1537,21
282,60	1515,50
282,81	1570,59
283,02	1472,28
283,24	1477,81
283,45	1558,50
283,67	1457,54
283,88	1545,40
284,10	1488,26
284,31	1536,59
284,53	1486,83
284,74	1532,90
284,95	1500,75
285,17	1497,47
285,38	1466,76
285,60	1467,98
285,81	1475,77
286,03	1543,55
286,24	1532,29
286,45	1551,75
286,67	1526,76
286,88	1485,19
287,10	1566,29
287,31	1472,08
287,53	1542,94
287,74	1529,01
287,95	1475,56
288,17	1536,18
288,38	1532,09
288,60	1485,80
288,81	1494,61
289,02	1502,59
289,24	1557,48
289,45	1507,10
289,67	1540,69
289,88	1510,99
290,10	1538,23
290,31	1540,69
290,52	1483,14
290,74	1490,72
290,95	1538,23
291,17	1553,38
291,38	1471,67
291,59	1481,50
291,81	1465,12
292,02	1504,03
292,24	1551,34
292,45	1542,53
292,66	1524,92
292,88	1536,80
293,09	1509,76
293,31	1530,04
293,52	1495,43
293,73	1473,31
293,95	1527,78
294,16	1540,89
294,37	1536,59
294,59	1566,08
294,80	1597,83
295,02	1495,22
295,23	1449,55
295,44	1538,64
295,66	1504,64
295,87	1542,53
296,09	1518,77
296,30	1521,23
296,51	1473,10
296,73	1498,91
296,94	1462,86
297,15	1499,52
297,37	1501,57
297,58	1477,81
297,79	1504,44
298,01	1538,64
298,22	1554,00
298,44	1483,55
298,65	1509,97
298,86	1583,08
299,08	1470,85
299,29	1530,04
299,50	1495,63
299,72	1500,55
299,93	1545,19
300,14	1539,05
300,36	1472,28
300,57	1473,10
300,79	1524,10
301,00	1566,90
301,21	1462,86
301,43	1508,94
301,64	1501,37
301,85	1510,99
302,07	1556,05
302,28	1496,86
302,49	1583,28
302,71	1523,48
302,92	1558,09
303,13	1574,07
303,35	1533,93
303,56	1543,96
303,77	1466,76
303,99	1524,92
304,20	1545,19
304,41	1491,33
304,63	1503,62
304,84	1544,78
305,05	1547,04
305,27	1550,72
305,48	1536,80
305,69	1523,28
305,91	1536,18
306,12	1515,50
306,33	1540,48
306,55	1521,64
306,76	1506,49
306,97	1526,76
307,19	1548,67
307,40	1579,39
307,61	1560,96
307,82	1520,21
308,04	1564,65
308,25	1566,49
308,46	1545,60
308,68	1544,37
308,89	1592,91
309,10	1533,52
309,32	1521,85
309,53	1535,57
309,74	1543,35
309,96	1497,47
310,17	1523,48
310,38	1522,46
310,59	1561,17
310,81	1549,90
311,02	1557,69
311,23	1549,08
311,45	1543,14
311,66	1519,39
311,87	1538,84
312,09	1616,87
312,30	1526,35
312,51	1553,18
312,72	1564,24
312,94	1567,31
313,15	1536,39
313,36	1586,15
313,58	1500,55
313,79	1616,46
314,00	1532,90
314,21	1524,71
314,43	1569,97
314,64	1560,96
314,85	1510,99
315,06	1536,18
315,28	1600,28
315,49	1601,10
315,70	1568,54
315,92	1608,47
316,13	1634,07
316,34	1603,97
316,55	1578,78
316,77	1538,64
316,98	1639,40
317,19	1542,33
317,40	1485,39
317,62	1502,19
317,83	1617,28
318,04	1569,97
318,25	1544,99
318,47	1542,73
318,68	1575,71
318,89	1624,86
319,11	1557,89
319,32	1584,72
319,53	1603,76
319,74	1614,62
319,96	1580,83
320,17	1557,69
320,38	1540,69
320,59	1625,88
320,81	1584,92
321,02	1589,02
321,23	1549,90
321,44	1632,85
321,65	1569,15
321,87	1608,07
322,08	1643,29
322,29	1581,85
322,50	1556,87
322,72	1588,81
322,93	1578,37
323,14	1573,25
323,35	1568,74
323,57	1648,41
323,78	1602,54
323,99	1627,52
324,20	1641,65
324,41	1587,38
324,63	1626,50
324,84	1607,45
325,05	1580,62
325,26	1622,20
325,48	1616,05
325,69	1594,75
325,90	1601,51
326,11	1601,72
326,32	1612,98
326,54	1649,64
326,75	1600,08
326,96	1633,26
327,17	1633,66
327,39	1655,58
327,60	1600,90
327,81	1635,92
328,02	1600,49
328,23	1616,26
328,45	1664,59
328,66	1600,49
328,87	1625,06
329,08	1669,91
329,29	1626,70
329,51	1647,18
329,72	1602,13
329,93	1654,76
330,14	1598,03
330,35	1637,56
330,56	1597,21
330,78	1619,74
330,99	1665,61
331,20	1687,73
331,41	1666,64
331,62	1627,11
331,84	1663,57
332,05	1644,72
332,26	1699,61
332,47	1669,91
332,68	1620,76
332,90	1655,99
333,11	1620,35
333,32	1752,86
333,53	1685,48
333,74	1617,90
333,95	1698,18
334,17	1683,02
334,38	1685,68
334,59	1635,51
334,80	1658,65
335,01	1745,28
335,22	1688,76
335,44	1682,82
335,65	1635,71
335,86	1727,87
336,07	1677,90
336,28	1653,53
336,49	1661,31
336,71	1640,83
336,92	1726,23
337,13	1693,87
337,34	1650,46
337,55	1753,88
337,76	1665,00
337,97	1708,42
338,19	1698,18
338,40	1669,50
338,61	1727,67
338,82	1697,15
339,03	1718,66
339,24	1660,90
339,45	1679,54
339,67	1722,96
339,88	1707,80
340,09	1722,34
340,30	1651,48
340,51	1767,60
340,72	1730,74
340,93	1659,06
341,15	1747,12
341,36	1804,47
341,57	1681,38
341,78	1694,28
341,99	1737,29
342,20	1771,70
342,41	1712,31
342,62	1825,76
342,84	1678,92
343,05	1794,43
343,26	1711,49
343,47	1770,06
343,68	1694,28
343,89	1753,68
344,10	1766,37
344,31	1737,70
344,53	1678,52
344,74	1750,81
344,95	1740,98
345,16	1772,93
345,37	1785,62
345,58	1763,92
345,79	1734,02
346,00	1726,23
346,21	1745,69
346,42	1759,61
346,64	1760,43
346,85	1824,33
347,06	1774,56
347,27	1750,19
347,48	1836,21
347,69	1803,44
347,90	1781,94
348,11	1846,86
348,32	1760,84
348,53	1796,27
348,75	1775,38
348,96	1795,04
349,17	1764,53
349,38	1797,09
349,59	1817,16
349,80	1763,10
350,01	1877,58
350,22	1881,47
350,43	1803,24
350,64	1872,66
350,85	1898,67
351,06	1776,20
351,28	1819,42
351,49	1802,42
351,70	1864,27
351,91	1813,27
352,12	1822,08
352,33	1830,06
352,54	1805,49
352,75	1823,31
352,96	1818,39
353,17	1862,01
353,38	1875,94
353,59	1927,96
353,80	1953,15
354,01	1905,84
354,22	1838,67
354,44	1859,97
354,65	1904,00
354,86	1867,95
355,07	1812,25
355,28	1836,82
355,49	1887,00
355,70	1849,93
355,91	1919,77
356,12	1839,69
356,33	1849,73
356,54	1920,79
356,75	1898,88
356,96	1918,95
357,17	1960,93
357,38	1913,62
357,59	1896,01
357,80	1942,50
358,01	1927,96
358,22	1969,74
358,43	1916,28
358,64	1929,39
358,85	1904,61
359,07	1983,66
359,28	1914,44
359,49	1956,42
359,70	1883,72
359,91	1961,13
360,12	1911,78
360,33	1983,66
360,54	1935,94
360,75	1925,30
360,96	1924,68
361,17	1924,48
361,38	1936,15
361,59	2002,71
361,80	1935,54
362,01	2010,70
362,22	1999,84
362,43	1954,99
362,64	1991,65
362,85	1996,36
363,06	2052,68
363,27	2057,18
363,48	2033,22
363,69	2112,07
363,90	1983,46
364,11	2020,94
364,32	1990,42
364,53	2063,94
364,74	2054,52
364,95	2067,83
365,16	2004,14
365,37	2113,09
365,58	2038,14
365,79	2040,39
366,00	2064,97
366,21	2037,32
366,42	2089,95
366,63	2101,63
366,84	2033,84
367,05	2055,34
367,26	2091,39
367,47	2103,67
367,68	2035,27
367,89	2089,34
368,10	2053,70
368,31	2001,89
368,52	2058,41
368,73	2067,22
368,94	2060,26
369,15	2081,76
369,36	2077,66
369,57	2068,65
369,78	2064,76
369,99	2136,85
370,20	2161,22
370,40	2088,52
370,61	2100,40
370,82	2149,34
371,03	2169,41
371,24	2198,49
371,45	2194,19
371,66	2105,11
371,87	2170,85
372,08	2201,16
372,29	2187,85
372,50	2189,48
372,71	2213,65
372,92	2250,31
373,13	2175,15
373,34	2184,36
373,55	2211,19
373,76	2271,81
373,97	2217,13
374,18	2207,51
374,39	2224,50
374,60	2310,72
374,81	2225,73
375,01	2155,49
375,22	2308,06
375,43	2245,80
375,64	2232,49
375,85	2235,77
376,06	2265,67
376,27	2275,91
376,48	2313,18
376,69	2292,29
376,90	2303,35
377,11	2324,44
377,32	2298,84
377,53	2319,94
377,74	2305,81
377,94	2313,80
378,15	2325,88
378,36	2370,11
378,57	2277,34
378,78	2400,22
378,99	2318,30
379,20	2463,91
379,41	2403,29
379,62	2375,23
379,83	2319,53
380,04	2387,73
380,25	2356,60
380,45	2428,07
380,66	2417,63
380,87	2409,23
381,08	2402,68
381,29	2405,34
381,50	2442,61
381,71	2464,73
381,92	2446,50
382,13	2413,33
382,34	2453,06
382,55	2405,54
382,75	2459,82
382,96	2473,33
383,17	2407,59
383,38	2519,82
383,59	2501,59
383,80	2425,20
384,01	2460,63
384,22	2543,37
384,43	2535,39
384,63	2504,46
384,84	2514,09
385,05	2523,71
385,26	2508,35
385,47	2563,85
385,68	2531,70
385,89	2591,70
386,10	2490,33
386,30	2605,43
386,51	2500,16
386,72	2555,66
386,93	2477,63
387,14	2595,60
387,35	2642,29
387,56	2664,61
387,77	2554,02
387,97	2608,09
388,18	2613,82
388,39	2619,76
388,60	2649,87
388,81	2646,18
389,02	2655,81
389,23	2654,37
389,43	2658,88
389,64	2674,85
389,85	2634,30
390,06	2688,78
390,27	2644,13
390,48	2736,09
390,69	2671,58
390,89	2758,20
391,10	2720,93
391,31	2679,15
391,52	2721,96
391,73	2781,14
391,94	2722,57
392,14	2697,17
392,35	2706,60
392,56	2738,13
392,77	2798,96
392,98	2782,17
393,19	2821,69
393,39	2835,00
393,60	2765,17
393,81	2908,32
394,02	2856,71
394,23	2830,09
394,44	2776,84
394,64	2833,16
394,85	2900,13
395,06	2878,42
395,27	2865,31
395,48	2909,55
395,69	2882,52
395,89	2938,84
396,10	2956,86
396,31	2970,78
396,52	2886,20
396,73	2885,79
396,93	2953,17
397,14	2953,99
397,35	3037,55
397,56	2982,25
397,77	2958,50
397,97	3027,10
398,18	3044,72
398,39	3005,39
398,60	3027,31
398,81	2966,28
399,01	3019,73
399,22	3039,39
399,43	3091,20
399,64	3116,80
399,85	3070,93
400,05	3000,48
400,26	2968,53
400,47	3030,79
400,68	3079,94
400,89	3155,31
401,09	3069,29
401,30	3133,39
401,51	3119,26
401,72	3104,72
401,93	3232,92
402,13	3146,50
402,34	3177,01
402,55	3171,69
402,76	3183,36
402,96	3169,85
403,17	3153,05
403,38	3207,53
403,59	3183,57
403,80	3293,54
404,00	3251,15
404,21	3211,62
404,42	3275,32
404,63	3275,11
404,83	3292,52
405,04	3214,08
405,25	3282,89
405,46	3297,64
405,66	3230,88
405,87	3256,27
406,08	3282,07
406,29	3387,14
406,49	3324,88
406,70	3381,40
406,91	3240,71
407,12	3403,72
407,32	3397,99
407,53	3437,11
407,74	3419,08
407,95	3378,12
408,15	3382,22
408,36	3314,23
408,57	3423,59
408,78	3419,49
408,98	3426,46
409,19	3395,12
409,40	3485,03
409,61	3442,02
409,81	3457,38
410,02	3440,18
410,23	3482,57
410,44	3549,95
410,64	3482,37
410,85	3464,34
411,06	3509,40
411,26	3559,37
411,47	3520,25
411,68	3551,18
411,89	3471,31
412,09	3546,47
412,30	3580,46
412,51	3519,43
412,72	3539,09
412,92	3618,76
413,13	3566,54
413,34	3518,21
413,54	3559,78
413,75	3616,30
413,96	3584,35
414,17	3517,59
414,37	3629,21
414,58	3618,97
414,79	3669,14
414,99	3658,29
415,20	3688,39
415,41	3630,84
415,61	3726,69
415,82	3751,06
416,03	3667,09
416,24	3666,07
416,44	3748,81
416,65	3783,83
416,86	3830,52
417,06	3709,28
417,27	3750,45
417,48	3753,72
417,68	3802,05
417,89	3866,36
418,10	3740,82
418,30	3846,09
418,51	3815,16
418,72	3786,90
418,92	3935,99
419,13	3803,69
419,34	3874,14
419,55	3821,92
419,75	4303,19
419,96	3882,74
420,17	4049,24
420,37	3936,40
420,58	3880,70
420,79	3833,80
420,99	3985,96
421,20	4107,61
421,41	3939,88
421,61	4019,34
421,82	3911,62
422,03	4081,60
422,23	3951,15
422,44	4090,41
422,65	4115,80
422,85	4011,77
423,06	4078,53
423,26	4129,32
423,47	4224,96
423,68	4086,93
423,88	4167,41
424,09	4098,40
424,30	4130,14
424,50	4166,80
424,71	4217,18
424,92	4234,79
425,12	4221,68
425,33	4327,77
425,54	4249,94
425,74	4287,83
425,95	4262,44
426,15	4292,54
426,36	4188,92
426,57	4397,81
426,77	4313,84
426,98	4327,77
427,19	4287,63
427,39	4340,87
427,60	4384,50
427,81	4369,14
428,01	4332,48
428,22	4478,91
428,42	4309,13
428,63	4438,56
428,84	4403,95
429,04	4413,37
429,25	4417,26
429,45	4265,30
429,66	4488,12
429,87	4529,70
430,07	4533,18
430,28	4502,05
430,49	4482,80
430,69	4556,32
430,90	4532,36
431,10	4497,13
431,31	4590,73
431,52	4706,23
431,72	4568,40
431,93	4522,53
432,13	4634,14
432,34	4707,46
432,55	4567,79
432,75	4669,98
432,96	4736,75
433,16	4737,98
433,37	4800,64
433,58	4762,96
433,78	4824,81
433,99	4517,41
434,19	4747,60
434,40	4771,77
434,60	4810,27
434,81	4845,29
435,02	4758,46
435,22	4847,95
435,43	4784,67
435,63	4761,73
435,84	4843,45
436,05	4961,20
436,25	4762,55
436,46	5040,67
436,66	4961,82
436,87	4998,89
437,07	4881,33
437,28	4925,98
437,48	5000,12
437,69	4907,55
437,90	5038,21
438,10	4961,00
438,31	5028,17
438,51	5117,26
438,72	5057,25
438,92	4945,23
439,13	5124,63
439,34	5090,02
439,54	5111,53
439,75	5022,44
439,95	5023,87
440,16	5095,96
440,36	5162,52
440,57	5159,24
440,77	5205,53
440,98	5093,30
441,18	5034,11
441,39	5129,96
441,60	5234,20
441,80	5229,90
442,01	5051,93
442,21	5251,40
442,42	5089,00
442,62	5180,75
442,83	5168,05
443,03	5244,85
443,24	5266,15
443,44	5312,43
443,65	5286,63
443,85	5266,35
444,06	5317,76
444,26	5336,80
444,47	5226,83
444,67	5359,53
444,88	5319,39
445,09	5279,25
445,29	5344,99
445,50	5364,86
445,70	5242,39
445,91	5341,31
446,11	5231,13
446,32	5412,99
446,52	5422,41
446,73	5380,63
446,93	5427,53
447,14	5485,28
447,34	5455,17
447,55	5277,62
447,75	5497,77
447,96	5554,09
448,16	5438,38
448,37	5502,28
448,57	5477,50
448,78	5530,74
448,98	5457,43
449,19	5496,95
449,39	5546,92
449,60	5507,19
449,80	5628,64
450,01	5640,31
450,21	5616,55
450,42	5656,08
450,62	5591,98
450,83	5574,16
451,03	5613,69
451,23	5653,83
451,44	5715,68
451,64	5778,96
451,85	5757,45
452,05	5829,34
452,26	5803,33
452,46	5731,85
452,67	5768,31
452,87	5725,51
453,08	5842,65
453,28	5647,07
453,49	5960,82
453,69	5801,69
453,90	5867,02
454,10	5960,41
454,31	5938,09
454,51	5928,66
454,71	5902,45
454,92	5911,05
455,12	5863,74
455,33	6011,20
455,53	6158,04
455,74	6281,94
455,94	6342,97
456,15	6439,63
456,35	6575,41
456,55	6401,75
456,76	6578,08
456,96	6771,61
457,17	6338,05
457,37	6986,44
457,58	6763,01
457,78	6928,69
457,99	6758,09
458,19	6596,30
458,39	6772,84
458,60	7116,49
458,80	6959,61
459,01	6835,30
459,21	6802,94
459,42	7034,77
459,62	6854,55
459,82	7183,86
460,03	7188,98
460,23	7150,69
460,44	7143,32
460,64	6837,35
460,85	7386,41
461,05	7001,80
461,25	7067,13
461,46	7453,99
461,66	7305,31
461,87	7189,19
462,07	7341,97
462,27	7183,25
462,48	7145,57
462,68	7318,83
462,89	7296,91
463,09	7432,08
463,29	7386,20
463,50	7356,71
463,70	7474,06
463,91	7341,35
464,11	7458,70
464,31	7568,68
464,52	7617,62
464,72	7837,17
464,93	7581,99
465,13	7790,47
465,33	7584,24
465,54	7541,44
465,74	7635,03
465,95	7798,05
466,15	7705,28
466,35	7881,40
466,56	7934,24
466,76	8029,88
466,96	7954,52
467,17	8020,05
467,37	8052,20
467,58	8134,33
467,78	8141,49
467,98	8280,55
468,19	8033,77
468,39	8398,92
468,59	8474,70
468,80	8325,20
469,00	8251,27
469,21	8308,40
469,41	8401,79
469,61	8681,54
469,82	8430,46
470,02	8779,44
470,22	8916,65
470,43	8877,53
470,63	8690,76
470,83	9129,03
471,04	8910,10
471,24	8931,40
471,45	9021,30
471,65	9243,92
471,85	9086,22
472,06	9344,47
472,26	9345,09
472,46	9372,94
472,67	9565,45
472,87	9377,44
473,07	9534,32
473,28	9429,67
473,48	9711,88
473,68	9779,87
473,89	9824,11
474,09	9943,91
474,29	9825,33
474,50	10026,86
474,70	9991,22
474,90	10209,94
475,11	10142,97
475,31	10200,73
475,51	10212,81
475,72	10316,03
475,92	10319,92
476,12	10229,81
476,33	10631,42
476,53	10559,12
476,73	10662,95
476,93	10879,42
477,14	10851,98
477,34	10884,95
477,54	11038,96
477,75	11032,61
477,95	11025,65
478,15	11198,91
478,36	11317,89
478,56	11315,44
478,76	11530,47
478,97	11546,04
479,17	11499,75
479,37	11510,81
479,57	11581,06
479,78	11618,33
479,98	11625,50
480,18	11830,91
480,39	11928,60
480,59	12193,20
480,79	12138,72
480,99	12199,34
481,20	12275,93
481,40	12301,53
481,60	12235,18
481,81	12332,87
482,01	12292,73
482,21	12432,60
482,41	12456,57
482,62	12523,53
482,82	12604,63
483,02	12996,41
483,23	12820,08
483,43	13135,26
483,63	12933,33
483,83	13061,94
484,04	13477,48
484,24	13192,81
484,44	13314,66
484,64	13317,53
484,85	13381,22
485,05	13518,03
485,25	13616,33
485,45	13600,36
485,66	13789,38
485,86	13867,82
486,06	13872,94
486,26	14001,35
486,47	14027,56
486,67	14164,98
486,87	14212,90
487,07	14231,13
487,28	14067,70
487,48	14163,75
487,68	14470,54
487,88	14450,06
488,09	14541,81
488,29	14451,70
488,49	14756,84
488,69	14661,41
488,90	14844,70
489,10	14721,82
489,30	14726,12
489,50	14871,33
489,71	15063,63
489,91	15184,25
490,11	15265,15
490,31	15155,17
490,52	15297,10
490,72	15251,63
490,92	15612,48
491,12	15538,14
491,32	15567,63
491,53	15735,16
491,73	15639,72
491,93	15758,30
492,13	15801,31
492,33	15705,87
492,54	15566,41
492,74	15893,47
492,94	15805,20
493,14	16026,79
493,35	15960,84
493,55	15982,14
493,75	16035,80
493,95	15994,64
494,15	16152,12
494,36	16403,41
494,56	16189,81
494,76	16188,78
494,96	16358,56
495,16	16391,74
495,37	16453,79
495,57	16493,52
495,77	16592,03
495,97	16665,55
496,17	16873,42
496,37	16598,79
496,58	16740,92
496,78	16463,42
496,98	16663,50
497,18	16665,35
497,38	16728,22
497,59	16962,10
497,79	16749,72
497,99	16936,50
498,19	16963,53
498,39	17042,99
498,59	17056,92
498,80	17103,41
499,00	17121,63
499,20	17194,95
499,40	17014,52
499,60	17185,73
499,80	17288,54
500,01	17248,20
500,21	17217,07
500,41	17302,88
500,61	17447,26
500,81	17337,69
501,01	17493,34
501,22	17337,69
501,42	17403,84
501,62	17530,20
501,82	17389,92
502,02	17419,61
502,22	17278,10
502,42	17352,85
502,63	17593,08
502,83	17416,54
503,03	17321,51
503,23	17387,25
503,43	17329,50
503,63	17235,50
503,83	17232,63
504,04	16922,57
504,24	17114,67
504,44	16927,69
504,64	17080,88
504,84	17083,34
505,04	17083,54
505,24	17269,09
505,44	17313,73
505,65	17347,11
505,85	17368,41
506,05	17258,03
506,25	17439,68
506,45	17245,94
506,65	17185,12
506,85	17248,81
507,05	17396,06
507,26	17368,00
507,46	17453,81
507,66	17626,25
507,86	17553,14
508,06	17767,56
508,26	17671,92
508,46	17826,95
508,66	17885,53
508,86	17916,65
509,06	18006,15
509,27	18195,79
509,47	18145,00
509,67	18188,42
509,87	18225,69
510,07	18334,85
510,27	18489,27
510,47	18496,84
510,67	18638,77
510,87	18665,80
511,07	18780,28
511,28	18818,99
511,48	18734,41
511,68	18842,13
511,88	18959,28
512,08	18945,55
512,28	19050,00
512,48	18913,61
512,68	18962,55
512,88	18828,82
513,08	19197,45
513,28	19295,96
513,48	19420,68
513,68	19627,94
513,89	19528,41
514,09	19389,76
514,29	19657,63
514,49	19735,46
514,69	19847,27
514,89	19894,38
515,09	19955,61
515,29	20003,53
515,49	20019,51
515,69	20070,91
515,89	20324,66
516,09	20386,50
516,29	20177,41
516,49	20262,60
516,69	20501,19
516,89	20622,43
517,09	20758,42
517,29	20780,12
517,50	20779,71
517,70	20798,35
517,90	20849,55
518,10	20763,33
518,30	21218,80
518,50	20901,77
518,70	21104,73
518,90	21424,01
519,10	21334,92
519,30	21567,16
519,50	21625,94
519,70	21680,00
519,90	21774,00
520,10	22036,35
520,30	21795,92
520,50	21797,76
520,70	21868,21
520,90	21747,99
521,10	21787,52
521,30	21930,26
521,50	22391,26
521,70	22351,53
521,90	22483,42
522,10	22706,24
522,30	22509,22
522,50	22704,81
522,70	22667,12
522,90	22831,57
523,10	22588,28
523,30	22754,57
523,50	22733,89
523,70	22923,12
523,90	22899,16
524,10	23013,02
524,30	22931,31
524,50	23198,78
524,70	23287,04
524,90	23326,57
525,10	23520,51
525,30	23429,38
525,50	23565,57
525,70	23535,26
525,90	23345,82
526,10	23385,76
526,30	23547,54
526,50	23627,21
526,70	23711,38
526,90	23632,13
527,10	23669,40
527,30	23749,47
527,50	24065,89
527,70	23924,58
527,90	23860,68
528,10	23874,81
528,30	24146,78
528,50	24193,27
528,70	24139,20
528,90	24324,95
529,10	24418,34
529,30	24172,99
529,50	24280,72
529,70	24257,99
529,90	24551,25
530,10	24570,71
530,29	24416,09
530,49	24551,05
530,69	24783,70
530,89	24741,51
531,09	24518,69
531,29	24433,91
531,49	24539,38
531,69	24630,51
531,89	24666,96
532,09	24873,60
532,29	24787,18
532,49	24854,15
532,69	25070,00
532,89	25041,54
533,09	24770,39
533,29	24845,55
533,49	24851,49
533,68	24814,42
533,88	25235,28
534,08	25015,94
534,28	24904,32
534,48	24959,82
534,68	24843,91
534,88	24951,63
535,08	25279,92
535,28	25523,63
535,48	25457,28
535,68	25254,73
535,88	25404,85
536,08	25378,43
536,27	25321,90
536,47	25322,31
536,67	25723,10
536,87	25612,10
537,07	25432,29
537,27	25922,37
537,47	25670,67
537,67	25297,33
537,87	25362,45
538,07	25728,63
538,27	25656,75
538,46	25895,13
538,66	25672,72
538,86	25431,88
539,06	26028,86
539,26	25999,17
539,46	25914,18
539,66	25928,92
539,86	26086,00
540,06	26003,47
540,25	25796,21
540,45	25720,03
540,65	26025,38
540,85	26300,83
541,05	26218,10
541,25	26103,41
541,45	26245,54
541,65	26281,79
541,85	26208,88
542,04	26263,77
542,24	26314,15
542,44	26186,56
542,64	26236,53
542,84	26188,40
543,04	26051,19
543,24	26323,77
543,43	26591,03
543,63	26627,89
543,83	26516,48
544,03	26375,38
544,23	26392,38
544,43	26256,80
544,63	26491,50
544,82	26621,96
545,02	26446,03
545,22	26887,17
545,42	26539,22
545,62	27197,84
545,82	26809,55
546,02	26568,09
546,21	26756,71
546,41	26766,13
546,61	26785,18
546,81	26784,56
547,01	26706,33
547,21	27001,65
547,40	26861,77
547,60	26690,97
547,80	26638,13
548,00	26840,06
548,20	26880,61
548,40	26867,51
548,59	26701,83
548,79	26569,53
548,99	26779,44
549,19	26702,85
549,39	26440,30
549,59	26720,67
549,78	26388,90
549,98	26584,48
550,18	26706,54
550,38	26939,19
550,58	27121,45
550,77	27105,89
550,97	27171,83
551,17	26903,55
551,37	27285,91
551,57	26835,56
551,76	27136,00
551,96	26872,63
552,16	26760,81
552,36	26946,56
552,56	26748,72
552,75	26843,96
552,95	26895,15
553,15	27242,69
553,35	27203,99
553,55	26883,69
553,74	27432,75
553,94	27054,69
554,14	27013,73
554,34	27009,64
554,54	27112,44
554,73	27321,34
554,93	27265,84
555,13	27440,32
555,33	27046,09
555,53	27373,15
555,72	27147,05
555,92	27224,26
556,12	27301,88
556,32	27414,72
556,51	27342,23
556,71	27383,39
556,91	27077,42
557,11	27031,34
557,30	27160,98
557,50	27200,71
557,70	27245,77
557,90	27413,70
558,10	27586,96
558,29	27427,63
558,49	27833,53
558,69	27672,36
558,89	27430,08
559,08	27458,14
559,28	27496,03
559,48	27436,23
559,68	27465,51
559,87	27712,29
560,07	27419,43
560,27	27402,23
560,47	27241,06
560,66	27523,68
560,86	27578,97
561,06	27383,80
561,25	27694,27
561,45	27709,63
561,65	27725,20
561,85	27506,27
562,04	27572,62
562,24	27551,12
562,44	27502,17
562,64	27295,12
562,83	27594,13
563,03	27589,42
563,23	27720,69
563,42	27750,18
563,62	27982,63
563,82	27830,26
564,02	27917,71
564,21	27934,29
564,41	27944,74
564,61	28063,11
564,80	27947,20
565,00	27869,58
565,20	27863,84
565,40	28040,38
565,59	28119,23
565,79	28512,64
565,99	28823,52
566,18	28521,45
566,38	28231,86
566,58	28068,44
566,78	28169,61
566,97	28552,78
567,17	28570,19
567,37	28281,01
567,56	28030,96
567,76	28061,06
567,96	28290,03
568,15	28158,34
568,35	28212,41
568,55	28224,70
568,74	28039,76
568,94	28398,77
569,14	28352,90
569,33	28064,13
569,53	28216,30
569,73	28432,77
569,92	28206,06
570,12	28153,22
570,32	28123,94
570,52	27682,39
570,71	27954,16
570,91	28069,66
571,11	28088,92
571,30	28234,73
571,50	28078,27
571,70	28595,58
571,89	28571,62
572,09	28743,45
572,28	28773,96
572,48	28528,20
572,68	28782,97
572,87	28823,93
573,07	28989,61
573,27	28795,46
573,46	28976,10
573,66	29079,31
573,86	29100,00
574,05	29289,64
574,25	29130,10
574,45	29000,67
574,64	29237,42
574,84	29393,88
575,04	29075,01
575,23	29004,15
575,43	28822,09
575,62	28888,24
575,82	28765,77
576,02	28790,34
576,21	29103,89
576,41	29215,09
576,61	29132,56
576,80	28597,43
577,00	28672,18
577,19	28777,65
577,39	29104,50
577,59	29096,72
577,78	29100,20
577,98	29248,48
578,18	29175,16
578,37	29199,32
578,57	29304,18
578,76	29453,27
578,96	29502,01
579,16	29796,31
579,35	30042,88
579,55	29524,13
579,74	29615,27
579,94	29813,71
580,14	29875,56
580,33	29679,37
580,53	29601,95
580,72	29416,61
580,92	29794,26
581,12	29963,22
581,31	29961,78
581,51	30239,49
581,70	29995,98
581,90	29941,30
582,10	29692,27
582,29	30103,71
582,49	29789,34
582,68	30159,00
582,88	30378,75
583,07	30213,27
583,27	30251,37
583,47	30446,13
583,66	30356,63
583,86	30241,74
584,05	30246,45
584,25	30173,95
584,44	30511,46
584,64	30255,26
584,84	30116,20
585,03	30020,76
585,23	30197,30
585,42	30575,97
585,62	30334,10
585,81	30618,77
586,01	30505,72
586,20	30668,54
586,40	30483,20
586,60	30029,57
586,79	30398,41
586,99	30330,62
587,18	30377,52
587,38	30689,63
587,57	30732,64
587,77	30792,03
587,96	30436,50
588,16	30523,75
588,35	30506,34
588,55	30650,11
588,75	30814,56
588,94	30787,11
589,14	30830,33
589,33	30812,30
589,53	31123,60
589,72	30488,11
589,92	31048,23
590,11	30847,12
590,31	30728,13
590,50	30835,45
590,70	30751,68
590,89	30994,98
591,09	30533,78
591,28	30623,07
591,48	30595,63
591,67	30327,55
591,87	30741,03
592,06	30642,94
592,26	30770,12
592,45	30750,46
592,65	30984,33
592,84	30845,28
593,04	31064,82
593,23	30902,21
593,43	31058,27
593,62	30951,36
593,82	30934,77
594,01	31007,48
594,21	31366,69
594,40	31074,85
594,60	31194,05
594,79	31509,84
594,99	31307,30
595,18	31427,31
595,38	31552,44
595,57	31316,72
595,77	31646,44
595,96	31633,13
596,16	31663,44
596,35	31626,99
596,55	31433,25
596,74	31642,14
596,94	31325,32
597,13	31501,86
597,33	31195,27
597,52	31110,69
597,72	31222,72
597,91	31333,72
598,11	31193,64
598,30	31184,62
598,50	31393,93
598,69	30891,15
598,88	30886,44
599,08	30590,30
599,27	30817,01
599,47	30810,46
599,66	31237,46
599,86	31316,72
600,05	31567,80
600,25	31643,37
600,44	31016,90
600,64	31478,71
600,83	31642,96
601,02	31693,75
601,22	31209,81
601,41	31140,18
601,61	31652,79
601,80	31630,88
602,00	31733,28
602,19	31339,66
602,38	31446,56
602,58	31288,05
602,77	31360,96
602,97	31229,68
603,16	31526,84
603,36	31024,06
603,55	31569,23
603,74	31183,40
603,94	31076,90
604,13	30803,29
604,33	30753,73
604,52	30769,50
604,72	31039,01
604,91	30787,32
605,10	31105,57
605,30	30624,51
605,49	30813,94
605,69	30896,89
605,88	30621,43
606,07	31034,92
606,27	30995,39
606,46	30730,80
606,66	30815,99
606,85	30532,76
607,04	30811,89
607,24	30203,65
607,43	30330,83
607,63	30173,75
607,82	30211,02
608,01	30434,45
608,21	30291,92
608,40	30545,66
608,60	29907,72
608,79	29764,97
608,98	29358,86
609,18	30226,99
609,37	29820,47
609,57	29644,96
609,76	30044,73
609,95	30066,23
610,15	30534,19
610,34	30425,24
610,53	30514,94
610,73	30321,20
610,92	30655,02
611,11	30508,80
611,31	30550,57
611,50	30592,97
611,70	30568,39
611,89	30802,47
612,08	30868,42
612,28	30602,80
612,47	30689,63
612,66	30396,57
612,86	30451,86
613,05	30386,33
613,24	30414,18
613,44	30566,55
613,63	30486,68
613,82	30801,45
614,02	30663,42
614,21	30257,30
614,41	30726,49
614,60	31385,53
614,79	30797,35
614,99	30663,62
615,18	31123,60
615,37	31283,34
615,57	31856,77
615,76	31603,84
615,95	31675,32
616,15	31486,91
616,34	31909,61
616,53	31917,80
616,73	32055,63
616,92	31919,23
617,11	32085,53
617,30	32136,73
617,50	32264,93
617,69	32349,10
617,88	32445,56
618,08	32012,82
618,27	32340,70
618,46	32285,00
618,66	32098,84
618,85	32210,04
619,04	32369,58
619,24	32894,06
619,43	33172,38
619,62	33199,42
619,82	33501,08
620,01	33212,52
620,20	33266,39
620,39	32889,97
620,59	33083,50
620,78	33212,52
620,97	33777,15
621,17	34274,60
621,36	34359,39
621,55	33915,39
621,74	34097,04
621,94	33855,18
622,13	33988,91
622,32	33904,33
622,52	33595,29
622,71	33775,92
622,90	33715,10
623,09	33787,80
623,29	33957,17
623,48	34120,59
623,67	34256,58
623,86	33841,25
624,06	33797,83
624,25	34136,36
624,44	34167,90
624,64	34041,54
624,83	34091,10
625,02	33845,76
625,21	34445,61
625,41	34682,35
625,60	34757,31
625,79	34666,38
625,98	34542,47
626,18	35069,62
626,37	34583,84
626,56	34377,61
626,75	34886,74
626,95	34547,59
627,14	34394,41
627,33	34742,56
627,52	34761,61
627,72	34952,48
627,91	35013,51
628,10	35046,48
628,29	34854,18
628,49	34509,50
628,68	34699,96
628,87	35014,94
629,06	35325,21
629,25	34719,21
629,45	34717,99
629,64	35146,22
629,83	35345,89
630,02	35078,43
630,22	35102,39
630,41	35122,46
630,60	35010,23
630,79	34651,84
630,98	34746,45
631,18	34926,88
631,37	34854,79
631,56	34979,10
631,75	35083,14
631,94	35028,87
632,14	35035,83
632,33	34679,89
632,52	34988,52
632,71	35259,06
632,90	35266,23
633,10	35102,80
633,29	34757,92
633,48	34688,70
633,67	34783,11
633,86	35004,70
634,06	35011,25
634,25	35087,64
634,44	35190,45
634,63	34677,44
634,82	34921,96
635,02	34416,11
635,21	34626,24
635,40	34551,08
635,59	34621,32
635,78	34957,39
635,97	34578,93
636,17	34011,44
636,36	34603,09
636,55	34241,83
636,74	34738,87
636,93	34373,11
637,12	34749,52
637,32	35005,52
637,51	34598,59
637,70	34698,94
637,89	34926,06
638,08	34971,73
638,27	34956,57
638,47	34582,21
638,66	34717,58
638,85	34101,55
639,04	34183,06
639,23	33670,04
639,42	33783,29
639,62	33897,98
639,81	33928,70
640,00	33838,59
640,19	33813,19
640,38	33978,26
640,57	34319,66
640,76	34217,05
640,95	34580,57
641,15	34843,73
641,34	35201,10
641,53	34955,75
641,72	34432,70
641,91	34331,33
642,10	34254,53
642,29	34676,21
642,49	35098,91
642,68	35053,65
642,87	35103,62
643,06	34809,73
643,25	34744,20
643,44	34393,18
643,63	34441,71
643,82	34111,99
644,01	34627,87
644,21	34876,09
644,40	34769,18
644,59	34681,94
644,78	34930,77
644,97	34409,97
645,16	34414,48
645,35	34089,26
645,54	34525,89
645,73	34152,13
645,92	34149,88
646,12	34307,37
646,31	34286,48
646,50	34499,67
646,69	34801,75
646,88	34235,69
647,07	34350,78
647,26	34344,23
647,45	34035,19
647,64	34438,64
647,83	34603,71
648,02	34649,17
648,22	34560,29
648,41	34546,98
648,60	34444,38
648,79	34210,91
648,98	34517,08
649,17	34474,07
649,36	34608,83
649,55	34562,14
649,74	34476,33
649,93	34408,54
650,12	34878,34
650,31	34619,68
650,50	34213,57
650,69	34354,06
650,88	34654,70
651,08	34151,52
651,27	34442,94
651,46	34034,17
651,65	33637,48
651,84	33621,09
652,03	34093,76
652,22	33882,62
652,41	33888,35
652,60	34137,59
652,79	34205,99
652,98	33952,66
653,17	34126,74
653,36	33958,60
653,55	33955,73
653,74	34086,60
653,93	34374,54
654,12	33909,04
654,31	34505,82
654,50	34500,08
654,69	33888,97
654,88	33755,24
655,07	33828,35
655,26	33622,32
655,45	33625,60
655,64	33567,44
655,83	33705,47
656,02	33656,32
656,21	33597,54
656,40	33931,16
656,59	34127,35
656,78	33785,55
656,97	33952,25
657,17	33981,54
657,36	33730,25
657,55	33332,33
657,74	33914,57
657,93	33977,85
658,12	34109,53
658,31	34264,16
658,50	34346,28
658,69	34191,86
658,87	34463,83
659,06	33771,82
659,25	33839,41
659,44	33590,99
659,63	33812,37
659,82	33762,40
660,01	33442,10
660,20	33443,94
660,39	33373,08
660,58	33361,62
660,77	33410,56
660,96	33628,47
661,15	33191,43
661,34	33489,20
661,53	33541,63
661,72	33580,13
661,91	33599,59
662,10	33234,23
662,29	33008,55
662,48	32826,28
662,67	33519,31
662,86	33502,72
663,05	33712,64
663,24	33565,39
663,43	33290,96
663,62	33155,59
663,81	32899,80
664,00	33022,06
664,19	32944,85
664,38	33180,78
664,57	33143,30
664,76	33326,19
664,94	33439,23
665,13	32975,57
665,32	32802,93
665,51	33009,37
665,70	32800,47
665,89	32406,03
666,08	32286,02
666,27	32365,07
666,46	32580,93
666,65	32658,75
666,84	32747,84
667,03	32815,01
667,22	32656,09
667,41	32855,36
667,60	32741,29
667,78	32657,32
667,97	32985,81
668,16	33091,49
668,35	32641,55
668,54	32224,99
668,73	32434,30
668,92	32330,05
669,11	32484,27
669,30	32508,23
669,49	32935,23
669,68	32841,84
669,86	33087,39
670,05	33051,96
670,24	32735,35
670,43	32860,68
670,62	32658,96
670,81	32418,53
671,00	32366,10
671,19	32544,89
671,38	32235,64
671,57	32400,30
671,75	32106,21
671,94	31875,20
672,13	32105,39
672,32	32295,44
672,51	32396,20
672,70	32499,42
672,89	32059,52
673,08	32376,34
673,26	32465,22
673,45	31995,42
673,64	32333,13
673,83	32205,54
674,02	32088,39
674,21	31958,76
674,40	32165,40
674,59	32272,71
674,77	32467,06
674,96	32336,61
675,15	32314,28
675,34	32190,18
675,53	31949,75
675,72	31325,12
675,91	31829,33
676,09	31811,71
676,28	31798,40
676,47	31467,45
676,66	31818,06
676,85	31991,73
677,04	32001,97
677,22	31809,87
677,41	31801,27
677,60	31785,29
677,79	31535,44
677,98	31196,50
678,17	31043,72
678,36	31285,79
678,54	31365,46
678,73	31188,31
678,92	31339,25
679,11	31269,21
679,30	31003,58
679,48	31082,23
679,67	31181,14
679,86	31372,42
680,05	30959,35
680,24	30898,32
680,43	30929,45
680,61	30932,72
680,80	31287,43
680,99	31666,92
681,18	31333,31
681,37	31290,91
681,55	31348,26
681,74	30898,73
681,93	31338,22
682,12	31054,17
682,31	31021,20
682,49	31154,32
682,68	31111,92
682,87	31291,12
683,06	31689,65
683,25	31550,60
683,43	31882,98
683,62	31394,75
683,81	31887,08
684,00	31227,63
684,19	31180,73
684,37	31067,48
684,56	30979,83
684,75	31021,20
684,94	30798,38
685,12	30875,59
685,31	31006,25
685,50	30954,43
685,69	31126,46
685,88	30787,73
686,06	30632,49
686,25	30494,66
686,44	30664,85
686,63	30536,03
686,81	30774,42
687,00	30660,34
687,19	30817,01
687,38	30620,00
687,56	30759,06
687,75	30991,50
687,94	30899,14
688,13	30598,29
688,31	30754,55
688,50	30389,60
688,69	30365,23
688,88	30400,46
689,06	30121,73
689,25	29879,04
689,44	29818,63
689,63	29531,91
689,81	30073,19
690,00	30034,28
690,19	29935,36
690,38	29842,18
690,56	29973,66
690,75	30207,95
690,94	29797,33
691,13	30059,27
691,31	30259,35
691,50	30539,92
691,69	30435,89
691,87	30367,69
692,06	30291,92
692,25	30161,46
692,44	30044,11
692,62	29969,97
692,81	30055,99
693,00	29817,20
693,18	29895,22
693,37	30023,84
693,56	30437,94
693,75	30680,82
693,93	30784,25
694,12	30272,46
694,31	30203,24
694,49	29754,12
694,68	30039,40
694,87	29657,25
695,05	29733,64
695,24	29701,28
695,43	29645,99
695,62	29703,12
695,80	30004,79
695,99	29597,24
696,18	29508,57
696,36	29627,55
696,55	29562,84
696,74	29277,97
696,92	29178,23
697,11	29414,77
697,30	29403,51
697,48	29659,50
697,67	29729,75
697,86	29559,36
698,04	29590,08
698,23	29403,51
698,42	29611,99
698,60	29681,83
698,79	29887,85
698,98	29543,18
699,16	29436,07
699,35	29527,20
699,54	29408,63
699,72	29563,66
699,91	29890,51
700,10	29625,10
700,28	29751,25
700,47	29908,74
700,66	29916,11
700,84	29776,03
701,03	29616,70
701,21	29414,77
701,40	29784,43
701,59	29381,80
701,77	29292,10
701,96	29256,87
702,15	29315,65
702,33	29392,24
702,52	29477,85
702,71	29313,60
702,89	29229,84
703,08	29089,96
703,26	28924,69
703,45	28774,98
703,64	28808,98
703,82	28924,69
704,01	29016,24
704,20	28725,22
704,38	28927,76
704,57	28752,05
704,75	28786,66
704,94	28830,08
705,13	28888,24
705,31	28981,62
705,50	29148,33
705,68	28959,30
705,87	29140,75
706,06	29324,66
706,24	29515,33
706,43	29168,19
706,61	29571,03
706,80	29222,67
706,99	29206,90
707,17	29117,61
707,36	29018,08
707,54	28767,20
707,73	28769,25
707,92	28489,50
708,10	28353,51
708,29	28519,60
708,47	28637,98
708,66	28420,89
708,84	28276,71
709,03	27978,53
709,22	28051,85
709,40	28109,80
709,59	28605,82
709,77	28444,44
709,96	28358,84
710,14	27986,93
710,33	27946,79
710,52	27863,64
710,70	28427,04
710,89	28019,90
711,07	27946,38
711,26	28148,92
711,44	28132,13
711,63	28000,85
711,81	28146,46
712,00	28236,98
712,19	27843,57
712,37	27718,44
712,56	27687,10
712,74	27437,66
712,93	27737,69
713,11	27628,94
713,30	27967,88
713,48	28074,78
713,67	28291,87
713,85	28115,13
714,04	28333,03
714,22	28050,62
714,41	28415,98
714,59	28133,97
714,78	28438,91
714,97	28396,73
715,15	27810,19
715,34	28058,40
715,52	28204,83
715,71	27959,07
715,89	27595,97
716,08	27738,51
716,26	27792,98
716,45	27558,08
716,63	28138,27
716,82	27633,86
717,00	27534,53
717,19	27409,19
717,37	27655,16
717,56	27622,18
717,74	27801,59
717,93	27807,52
718,11	27536,37
718,30	27168,97
718,48	27440,73
718,67	27389,12
718,85	27227,33
719,04	26973,18
719,22	27138,45
719,41	27171,02
719,59	27303,93
719,78	27150,13
719,96	27295,33
720,15	27245,15
720,33	27218,32
720,52	26878,36
720,70	26996,53
720,88	26992,02
721,07	27303,52
721,25	27009,64
721,44	27086,43
721,62	26463,24
721,81	26835,97
721,99	26612,74
722,18	26778,42
722,36	27392,81
722,55	27468,79
722,73	26965,19
722,92	27165,90
723,10	27032,78
723,28	27065,95
723,47	26928,74
723,65	27099,13
723,84	27288,77
724,02	27100,57
724,21	26761,22
724,39	26728,04
724,58	26482,28
724,76	26656,57
724,94	26396,88
725,13	26940,21
725,31	26542,08
725,50	26823,07
725,68	26691,79
725,87	26175,09
726,05	25896,77
726,23	25922,98
726,42	26135,77
726,60	26383,57
726,79	26297,97
726,97	26742,17
727,16	26703,67
727,34	26684,42
727,52	26272,98
727,71	26411,42
727,89	26232,43
728,08	26091,53
728,26	26240,21
728,44	26261,31
728,63	26708,79
728,81	26419,21
729,00	26625,64
729,18	27054,08
729,36	26927,10
729,55	26704,69
729,73	26448,29
729,92	26233,05
730,10	25789,87
730,28	26630,97
730,47	26305,13
730,65	26307,59
730,84	26345,48
731,02	26331,55
731,20	26050,57
731,39	26029,89
731,57	25928,31
731,75	26481,46
731,94	25888,99
732,12	25954,93
732,31	25533,66
732,49	25873,83
732,67	25884,48
732,86	25916,02
733,04	25584,66
733,22	25774,51
733,41	25406,28
733,59	25856,63
733,78	25455,84
733,96	25229,95
734,14	25693,61
734,33	25583,23
734,51	25341,77
734,69	25482,88
734,88	25545,54
735,06	25662,07
735,24	25489,84
735,43	25769,80
735,61	25511,14
735,79	25489,84
735,98	25352,01
736,16	25516,67
736,34	25137,79
736,53	25559,88
736,71	25368,80
736,89	25394,81
737,08	25293,85
737,26	25542,06
737,44	25456,05
737,63	25260,26
737,81	25220,53
737,99	25341,16
738,18	25160,12
738,36	25228,52
738,54	24929,72
738,73	25382,73
738,91	25728,63
739,09	26163,62
739,28	25876,90
739,46	25721,46
739,64	25426,76
739,82	24797,62
740,01	24378,41
740,19	24958,39
740,37	24942,01
740,56	24977,23
740,74	24982,97
740,92	24713,04
741,11	24900,64
741,29	25098,47
741,47	25170,56
741,65	24668,60
741,84	24490,22
742,02	24514,60
742,20	24397,25
742,39	24076,94
742,57	24311,44
742,75	24527,09
742,93	24267,61
743,12	23993,80
743,30	24133,88
743,48	24128,14
743,67	23989,91
743,85	23968,81
744,03	24040,08
744,21	23837,54
744,40	23830,37
744,58	23829,55
744,76	23664,48
744,94	23845,32
745,13	23827,91
745,31	23790,43
745,49	23697,66
745,67	23758,08
745,86	23607,75
746,04	23715,07
746,22	23484,88
746,40	23379,00
746,59	23390,88
746,77	23850,85
746,95	23616,15
747,13	23953,45
747,32	23825,25
747,50	23851,67
747,68	23507,61
747,86	23764,42
748,05	23917,20
748,23	24168,28
748,41	24116,47
748,59	24072,03
748,77	23692,75
748,96	23628,03
749,14	23270,04
749,32	23372,03
749,50	23252,43
749,69	23245,06
749,87	23160,68
750,05	23298,72
750,23	23160,89
750,41	23142,87
750,60	23368,35
750,78	23238,10
750,96	23085,93
751,14	23050,09
751,32	23052,35
751,51	23172,77
751,69	23039,44
751,87	22955,07
752,05	23146,96
752,23	23064,63
752,42	22688,01
752,60	22801,26
752,78	22608,55
752,96	23048,25
753,14	22844,68
753,33	22739,01
753,51	22781,81
753,69	22975,96
753,87	22771,77
754,05	23206,97
754,23	22602,00
754,42	23008,72
754,60	22828,50
754,78	23272,09
754,96	23015,28
755,14	23303,84
755,32	22881,14
755,51	23175,22
755,69	22848,98
755,87	23211,88
756,05	23032,89
756,23	23684,35
756,41	23528,09
756,60	23745,17
756,78	23742,10
756,96	23899,80
757,14	23846,75
757,32	23836,51
757,50	24213,13
757,68	24230,54
757,87	24383,32
758,05	24351,99
758,23	23922,32
758,41	24177,50
758,59	24184,26
758,77	24514,60
758,95	24374,51
759,14	24120,98
759,32	24538,35
759,50	24581,97
759,68	24653,65
759,86	24776,74
760,04	24913,95
760,22	24757,48
760,40	24928,08
760,59	24820,15
760,77	24898,79
760,95	25391,54
761,13	25346,69
761,31	25352,42
761,49	25451,34
761,67	25968,45
761,85	25704,87
762,03	25776,96
762,22	25737,03
762,40	25794,58
762,58	25810,96
762,76	25902,50
762,94	25632,79
763,12	25582,82
763,30	25823,04
763,48	25799,90
763,66	25831,23
763,84	25939,78
764,02	26218,10
764,21	26559,08
764,39	26796,03
764,57	26975,43
764,75	26840,06
764,93	26437,43
765,11	26048,32
765,29	26444,60
765,47	26263,77
765,65	26195,98
765,83	26007,16
766,01	26019,24
766,19	25787,61
766,37	25605,75
766,56	25526,70
766,74	25758,53
766,92	25687,88
767,10	26014,32
767,28	25676,61
767,46	25514,82
767,64	25641,80
767,82	25728,02
768,00	25437,21
768,18	25754,64
768,36	25843,93
768,54	25544,11
768,72	25605,55
768,90	25588,35
769,08	25471,00
769,26	25527,52
769,44	25424,30
769,62	25415,09
769,80	25018,81
769,98	24822,61
770,16	24504,56
770,34	24592,62
770,52	24581,56
770,71	24428,58
770,89	24332,94
771,07	24399,50
771,25	23946,49
771,43	23970,25
771,61	23960,42
771,79	23864,37
771,97	23950,79
772,15	23969,22
772,33	23754,59
772,51	23886,89
772,69	23989,09
772,87	24055,03
773,05	23986,22
773,23	24349,73
773,41	24109,10
773,59	24033,12
773,77	23867,23
773,95	23794,73
774,13	23309,78
774,31	23695,61
774,49	23387,80
774,67	23047,43
774,85	22880,32
775,03	22784,68
775,21	22732,45
775,39	22929,88
775,57	22582,13
775,75	22733,27
775,93	22461,92
776,10	22410,72
776,28	22230,50
776,46	22191,38
776,64	22481,99
776,82	22634,77
777,00	22948,51
777,18	22307,09
777,36	22424,23
777,54	22760,92
777,72	22368,12
777,90	22294,39
778,08	21875,38
778,26	21909,58
778,44	21869,03
778,62	21937,64
778,80	21671,81
778,98	21836,26
779,16	21424,01
779,34	21447,76
779,52	21231,50
779,70	21358,06
779,88	21202,42
780,05	21527,63
780,23	20943,55
780,41	21055,17
780,59	20855,49
780,77	20664,41
780,95	20441,19
781,13	20449,38
781,31	20491,98
781,49	20334,90
781,67	19965,03
781,85	19966,67
782,03	20163,89
782,21	20462,69
782,39	20452,45
782,56	20125,39
782,74	19864,68
782,92	19909,33
783,10	20181,50
783,28	19846,05
783,46	19932,06
783,64	19832,12
783,82	19755,53
784,00	19644,73
784,18	19363,34
784,35	19510,38
784,53	19661,32
784,71	19560,76
784,89	19426,42
785,07	19350,44
785,25	19558,51
785,43	19622,61
785,61	19057,58
785,79	19229,61
785,96	19048,57
786,14	19093,01
786,32	18903,57
786,50	19013,14
786,68	18753,05
786,86	18873,26
787,04	18797,90
787,22	18621,98
787,39	18409,60
787,57	18651,06
787,75	18599,65
787,93	18711,88
788,11	18658,43
788,29	18707,38
788,47	18453,63
788,65	18626,89
788,82	18324,81
789,00	18171,22
789,18	17917,47
789,36	17744,63
789,54	17482,28
789,72	17641,41
789,89	17833,10
790,07	18126,16
790,25	18146,85
790,43	18095,85
790,61	18018,85
790,79	17953,31
790,96	17909,28
791,14	17890,65
791,32	17734,39
791,50	17995,91
791,68	17650,21
791,86	17450,95
792,03	17179,59
792,21	17517,92
792,39	17312,91
792,57	17362,47
792,75	17055,48
792,93	17278,10
793,10	16952,47
793,28	17124,30
793,46	16707,94
793,64	16851,10
793,82	16940,18
793,99	17226,90
794,17	16917,66
794,35	17071,66
794,53	16900,66
794,71	16907,01
794,88	16789,66
795,06	16713,88
795,24	16465,46
795,42	16432,29
795,60	16217,05
795,77	16387,85
795,95	16285,04
796,13	16277,46
796,31	16267,22
796,49	16498,23
796,66	16128,57
796,84	16267,63
797,02	16271,11
797,20	16336,24
797,37	16362,86
797,55	16400,34
797,73	16247,56
797,91	16505,40
798,08	16400,95
798,26	16399,93
798,44	15950,20
798,62	16100,31
798,80	16042,35
798,97	15865,82
799,15	15515,21
799,33	15719,39
799,51	15737,62
799,68	15503,53
799,86	15513,77
800,04	15107,05
800,22	15048,47
800,39	15197,57
800,57	15149,23
800,75	15334,58
800,93	15195,72
801,10	15517,05
801,28	15270,06
801,46	15002,40
801,63	15013,86
801,81	15085,95
801,99	14728,99
802,17	14826,68
802,34	14752,95
802,52	14882,79
802,70	15047,04
802,88	15111,14
803,05	15124,25
803,23	15155,58
803,41	14918,22
803,58	14803,74
803,76	14640,93
803,94	14539,96
804,12	14462,14
804,29	14392,31
804,47	14437,77
804,65	14383,29
804,82	14234,00
805,00	14132,01
805,18	14350,12
805,35	14439,20
805,53	14297,89
805,71	14383,91
805,89	14341,52
806,06	14283,56
806,24	14305,68
806,42	14513,95
806,59	14419,34
806,77	14367,52
806,95	14030,43
807,12	14108,05
807,30	13903,46
807,48	13639,88
807,65	13539,33
807,83	13667,12
808,01	13587,66
808,18	13662,41
808,36	13660,57
808,54	13601,17
808,71	13452,29
808,89	13463,76
809,07	13437,95
809,24	13566,56
809,42	13655,04
809,60	13532,57
809,77	13429,76
809,95	13388,39
810,13	13282,31
810,30	13352,55
810,48	13441,23
810,66	13494,48
810,83	13616,74
811,01	13675,52
811,18	13699,07
811,36	13913,29
811,54	13763,58
811,71	13691,08
811,89	13603,63
812,07	13580,08
812,24	13652,78
812,42	13361,36
812,59	13202,64
812,77	13196,50
812,95	13316,51
813,12	13410,10
813,30	13296,44
813,48	13386,96
813,65	13375,69
813,83	13393,92
814,00	13266,95
814,18	13237,87
814,36	13177,45
814,53	13195,68
814,71	13068,70
814,88	12890,73
815,06	12667,10
815,24	12825,81
815,41	12528,65
815,59	12601,36
815,76	12524,15
815,94	12792,02
816,12	12560,60
816,29	12699,86
816,47	12577,60
816,64	12744,10
816,82	12451,65
817,00	12476,43
817,17	12364,82
817,35	12581,08
817,52	12481,76
817,70	12527,63
817,87	12479,71
818,05	12397,38
818,23	12236,00
818,40	12455,13
818,58	12264,47
818,75	12320,38
818,93	12150,80
819,10	12166,98
819,28	11929,01
819,46	12016,25
819,63	11881,50
819,81	11890,71
819,98	11761,07
820,16	11827,63
820,33	11782,17
820,51	11878,42
820,68	11790,36
820,86	11872,07
821,03	11870,44
821,21	11693,29
821,39	11806,95
821,56	11950,31
821,74	11782,58
821,91	11969,76
822,09	11890,30
822,26	11794,66
822,44	11635,33
822,61	11731,99
822,79	11758,00
822,96	11757,18
823,14	11642,50
823,31	11623,86
823,49	11635,94
823,66	11412,92
823,84	11328,54
824,01	11297,82
824,19	11251,95
824,36	11342,67
824,54	11276,73
824,71	11167,57
824,89	11024,42
825,06	10973,02
825,24	11012,95
825,41	10982,64
825,59	10849,11
825,76	10993,91
825,94	10915,47
826,11	11163,48
826,29	11044,70
826,46	10931,24
826,64	10986,33
826,81	10876,56
826,99	10890,69
827,16	10809,59
827,34	10678,72
827,51	10675,04
827,69	10685,69
827,86	10576,33
828,04	10523,28
828,21	10613,19
828,39	10663,57
828,56	10670,74
828,74	10521,23
828,91	10568,34
829,09	10691,63
829,26	10577,14
829,43	10629,78
829,61	10514,27
829,78	10468,60
829,96	10602,95
830,13	10488,26
830,31	10635,72
830,48	10497,89
830,66	10509,56
830,83	10498,50
831,01	10512,84
831,18	10466,96
831,35	10445,46
831,53	10189,26
831,70	10272,41
831,88	10097,51
832,05	10096,08
832,23	9971,76
832,40	10070,89
832,57	10191,72
832,75	10056,96
832,92	10001,26
833,10	10144,82
833,27	9904,59
833,45	9953,95
833,62	9974,22
833,79	10166,53
833,97	10164,27
834,14	10029,93
834,32	9931,62
834,49	9820,01
834,66	9652,49
834,84	9688,33
835,01	9720,27
835,19	9700,00
835,36	9573,84
835,53	9785,60
835,71	9663,55
835,88	9572,00
836,06	9587,98
836,23	9635,69
836,40	9470,01
836,58	9573,43
836,75	9459,98
836,93	9491,93
837,10	9380,52
837,27	9345,50
837,45	9349,39
837,62	9239,21
837,79	9173,67
837,97	9291,02
838,14	9105,27
838,32	9207,67
838,49	9044,65
838,66	9124,11
838,84	9073,12
839,01	9017,41
839,18	9068,20
839,36	9053,46
839,53	9073,53
839,70	9143,98
839,88	9084,79
840,05	9054,89
840,23	8943,07
840,40	9012,91
840,57	9002,67
840,75	8982,80
840,92	9011,27
841,09	9003,08
841,27	9010,04
841,44	8935,90
841,61	8995,91
841,79	8901,29
841,96	8792,13
842,13	8619,29
842,31	8683,39
842,48	8640,38
842,65	8590,20
842,83	8629,32
843,00	8579,97
843,17	8624,20
843,35	8572,18
843,52	8516,68
843,69	8466,30
843,86	8520,57
844,04	8363,90
844,21	8405,48
844,38	8481,66
844,56	8429,44
844,73	8404,66
844,90	8527,13
845,08	8433,13
845,25	8463,64
845,42	8326,22
845,60	8250,86
845,77	8121,42
845,94	8097,67
846,11	8089,48
846,29	8159,11
846,46	8078,62
846,63	8090,71
846,81	8180,61
846,98	8045,65
847,15	8081,90
847,32	8051,18
847,50	7913,76
847,67	7964,96
847,84	7861,95
848,01	8048,72
848,19	7923,18
848,36	7828,36
848,53	7863,18
848,71	7951,03
848,88	7797,44
849,05	7851,50
849,22	7811,16
849,40	7878,33
849,57	7880,79
849,74	7871,78
849,91	7816,28
850,09	7698,93
850,26	7720,64
850,43	7751,77
850,60	7593,46
850,78	7699,13
850,95	7550,86
851,12	7624,59
851,29	7599,81
851,47	7678,65
851,64	7501,50
851,81	7574,62
851,98	7642,00
852,15	7736,41
852,33	7582,19
852,50	7632,17
852,67	7560,69
852,84	7681,32
853,02	7553,73
853,19	7593,05
853,36	7390,50
853,53	7309,81
853,70	7466,69
853,88	7447,44
854,05	7404,23
854,22	7415,29
854,39	7370,64
854,56	7391,53
854,74	7300,19
854,91	7459,32
855,08	7340,53
855,25	7332,75
855,42	7304,08
855,60	7375,15
855,77	7233,43
855,94	7269,27
856,11	7108,50
856,28	7051,36
856,46	7025,35
856,63	6966,78
856,80	6934,01
856,97	7015,32
857,14	7021,26
857,31	6945,69
857,49	6957,15
857,66	7006,92
857,83	6855,37
858,00	6904,11
858,17	6880,36
858,34	6834,89
858,52	6772,63
858,69	6770,99
858,86	6761,37
859,03	6803,97
859,20	6782,46
859,37	6828,75
859,55	6683,75
859,72	6778,16
859,89	6750,92
860,06	6820,15
860,23	6786,56
860,40	6744,17
860,57	6727,78
860,75	6693,58
860,92	6650,57
861,09	6655,69
861,26	6594,66
861,43	6465,03
861,60	6458,06
861,77	6505,37
861,95	6386,18
862,12	6484,07
862,29	6420,18
862,46	6461,75
862,63	6363,65
862,80	6395,40
862,97	6407,89
863,14	6387,82
863,31	6416,49
863,49	6371,03
863,66	6315,32
863,83	6348,91
864,00	6282,55
864,17	6152,71
864,34	6144,52
864,51	6077,55
864,68	6083,90
864,85	6133,46
865,02	6058,92
865,20	6132,23
865,37	6043,15
865,54	6025,12
865,71	5988,67
865,88	6008,74
866,05	5905,11
866,22	5968,40
866,39	5926,41
866,56	5984,78
866,73	5856,17
866,90	6007,31
867,07	5970,24
867,25	5930,30
867,42	5956,31
867,59	5943,41
867,76	5920,88
867,93	5922,73
868,10	5893,44
868,27	5867,84
868,44	5857,19
868,61	5886,89
868,78	5845,11
868,95	5795,75
869,12	5886,68
869,29	5793,09
869,46	5729,40
869,63	5658,74
869,80	5639,90
869,97	5708,71
870,14	5685,57
870,32	5628,64
870,49	5615,53
870,66	5680,45
870,83	5593,82
871,00	5557,98
871,17	5544,26
871,34	5594,64
871,51	5520,91
871,68	5530,95
871,85	5537,91
872,02	5628,64
872,19	5480,57
872,36	5514,57
872,53	5538,94
872,70	5559,62
872,87	5432,65
873,04	5441,86
873,21	5409,91
873,38	5374,28
873,55	5390,05
873,72	5401,31
873,89	5330,45
874,06	5298,10
874,23	5269,83
874,40	5226,62
874,57	5291,75
874,74	5321,85
874,91	5216,18
875,08	5199,59
875,25	5230,10
875,42	5183,61
875,59	5102,72
875,76	5191,60
875,93	5169,07
876,10	5127,09
876,27	5118,90
876,44	5201,23
876,61	5058,89
876,78	5073,23
876,95	5045,99
877,12	5002,16
877,29	4963,87
877,46	4971,44
877,62	4957,11
877,79	4913,08
877,96	4971,44
878,13	4875,80
878,30	4874,98
878,47	4911,85
878,64	4839,55
878,81	4789,99
878,98	4779,96
879,15	4837,10
879,32	4768,70
879,49	4748,63
879,66	4716,68
879,83	4743,71
880,00	4735,11
880,17	4680,84
880,34	4669,98
880,51	4611,41
880,67	4688,41
880,84	4571,07
881,01	4640,49
881,18	4741,05
881,35	4659,33
881,52	4794,70
881,69	4699,88
881,86	4797,78
882,03	4742,69
882,20	4723,03
882,37	4734,90
882,54	4727,53
882,70	4580,90
882,87	4561,03
883,04	4581,31
883,21	4634,14
883,38	4505,33
883,55	4546,49
883,72	4501,64
883,89	4506,96
884,06	4479,32
884,23	4507,17
884,39	4419,93
884,56	4548,54
884,73	4500,21
884,90	4443,07
885,07	4440,41
885,24	4411,73
885,41	4455,97
885,58	4417,26
885,74	4376,51
885,91	4426,68
886,08	4372,82
886,25	4335,96
886,42	4297,46
886,59	4327,56
886,76	4292,13
886,93	4285,37
887,09	4351,52
887,26	4436,51
887,43	4285,58
887,60	4309,34
887,77	4251,58
887,94	4289,47
888,10	4364,84
888,27	4317,32
888,44	4238,07
888,61	4162,50
888,78	4170,69
888,95	4237,86
889,12	4122,15
889,28	4204,07
889,45	4124,20
889,62	4135,46
889,79	4137,31
889,96	4138,13
890,13	4086,31
890,29	4099,83
890,46	4118,06
890,63	4095,94
890,80	4041,67
890,97	4013,61
891,13	3986,37
891,30	4007,67
891,47	4084,88
891,64	3957,29
891,81	3926,37
891,98	3966,71
892,14	3959,13
892,31	3922,47
892,48	3955,24
892,65	3925,14
892,82	3935,38
892,98	3887,86
893,15	3914,49
893,32	3949,92
>>>>>End Processed Spectral Data<<<<<
